cc00,cc01,cc02,cc03,cc04,cc05,cc06,cc07,cc08,cc09,cc10,cc11,zcr,entropy
-15.056353586951023,3.1837778332153404,0.4069331753783045,0.169705340763417,0.38244800009720104,0.6591261209765737,0.43602274068157554,0.12808731673951892,0.08984883062402453,0.2759347401901979,0.33324354767954695,0.16021320033993353,6.0,1.4956991770426311
-15.207830844237103,3.1702528035645434,0.4324162483817622,0.12758879381086188,0.2884760467118531,0.7013080712997866,0.6294282135990725,0.3107799117669547,0.1389230011096531,0.21608144500222792,0.2711155315695136,0.17116877456895116,8.0,1.6422147568656311
-14.819339307693099,3.0753171750159365,0.4358494211751197,0.20327273617851319,0.3004027861424876,0.5700538454747432,0.4870679825423614,0.25903015519846007,0.1813532716550501,0.2873707396140064,0.32069053623401894,0.15919145190504355,4.0,1.5314854656630454
-14.891225829453518,3.155516981151327,0.3586449748188414,0.13964504914227227,0.29664462416101156,0.6758834064178785,0.5637168119398791,0.2957374161196791,0.11627015459200594,0.20752868792877663,0.24785448638979754,0.19967932365551821,6.0,1.5433283043329111
-15.07797649175714,3.1681688562707397,0.5942056441791984,0.2734583765897691,0.2153800181620137,0.4256143272207085,0.4010445408155169,0.24100711408802677,0.18568700109581282,0.24690340189474452,0.34384087858688994,0.2567240957204763,4.0,1.6627157745377636
-15.237937780575084,3.167181409776485,0.626647468457354,0.36818934439582457,0.31372609087277936,0.4720017372543073,0.45084137471132013,0.2862493595649694,0.17713362622627188,0.1708369840266222,0.200854837635739,0.14449603339482772,4.0,1.3723146817757839
-14.713724739358575,3.0004233942118415,0.533773433596837,0.37269221801212904,0.35605222364072664,0.5554218232899015,0.46853113996677453,0.32473618200926013,0.24564013099628113,0.2941738150806271,0.31294100164567645,0.206780675001946,4.0,1.5435852684965203
-15.474585617295102,3.212788034697764,0.648867635345962,0.2935441843002353,0.15695977137418218,0.35606769370865066,0.43403407570437125,0.4081011969136254,0.27388923315214253,0.2730819032124927,0.277447641913954,0.2404727082090604,6.0,1.5339561248028744
-15.51269909966691,3.394335197536517,0.6049883385553285,0.2029811124445564,0.1973629805548623,0.4682679323289738,0.4131291077480207,0.25574161499739523,0.16157402049701725,0.29319008391288154,0.2614464879239751,0.12704484300296204,4.0,1.6819227783600632
-15.48006569650894,3.2977751003283235,0.34996350764542,0.05113276235792466,0.317359494182799,0.7662893816099723,0.6061457139470934,0.32006547857378653,0.20462873762479997,0.3833685902479734,0.37259636927057005,0.23925838946674977,6.0,1.5312339171243246
-15.109050769958294,3.237549778372032,0.5068173608122925,0.15970161208929595,0.1973938134826776,0.48392314608583065,0.49614659386344934,0.406557988976051,0.30887671099345293,0.3106217193881542,0.2410298220175841,0.11492029324647607,6.0,1.6003692697454142
-14.953842992744233,3.074277582395601,0.483719398242964,0.2350049002619324,0.23689099895947535,0.4938232525998493,0.515973353574703,0.3810936319313277,0.22978850583918237,0.21593527009958896,0.16430736526842946,0.16158748430404096,4.0,1.5976308272252222
-15.26703723199758,3.3492009197669947,0.5663371895926457,0.2836519569763639,0.2918535677040258,0.529669575317103,0.46433827924318155,0.3567481737706788,0.30767433611305234,0.31066286394576503,0.1358442355252482,0.007116447779621426,4.0,1.3363973236185518
-15.20915858183505,3.1263783337037867,0.4607996538075534,0.16840755023225928,0.18854058926381956,0.4236106164512013,0.3784035169000546,0.306867525983646,0.2602393862722973,0.29217712600782625,0.2094754754315697,0.06808541698579372,6.0,1.7142472861646636
-15.527403167394768,3.490563005626942,0.624579023643299,0.2329300128966439,0.3112499792764908,0.6096344397748599,0.4942068973349237,0.25873846825930547,0.060812294585437895,0.0709972507934467,0.12273370344263106,0.08835243777138159,4.0,1.614602607144276
-15.568026333551893,3.0518108489500735,0.3574195579738306,0.007405883331544798,0.024327418991933233,0.35741892107463297,0.4068804285057207,0.2614922442333144,0.09634137947071635,0.1292368874891057,0.17698391507395206,0.19556110491487755,8.0,1.6594815543117902
-15.19647511972813,3.1466123705517326,0.47009606363897627,0.15954664854798556,0.18229274072973323,0.4349099499087036,0.36168339294524104,0.206682996406811,0.14576996767372086,0.28251425578191036,0.29188911130095774,0.14478657601012018,6.0,1.5567236540423897
-15.144264327376382,3.2488261639010254,0.5011160769953702,0.19362929145882252,0.30910995419213927,0.587086238281284,0.447369732721375,0.18084541812605645,0.10245619062598427,0.1901614901389594,0.2435622946203659,0.15371627265767218,6.0,1.5914717551447748
-15.179012133262944,2.9964034409543245,0.5074350459742953,0.29265092866733333,0.29292449265960546,0.43396488272769274,0.36999708768504314,0.25571151080383514,0.2346773667515641,0.36811705595431293,0.39089709888885515,0.30649259722131017,6.0,1.569126281045483
-15.104572246943688,3.1853788780004377,0.46337725562106186,0.20911663496522334,0.3325052851019242,0.6397432842326154,0.5390437796912175,0.3310940987827914,0.21594799374511145,0.29493551458377815,0.20502683170225866,0.1208197733240747,12.0,1.61739813394289
-15.052426614704306,3.195145995196217,0.7006914416055998,0.4280811099365449,0.3099118469041684,0.4097872588357371,0.37310907418392225,0.28352757029579834,0.18968663398883814,0.1536642294605667,0.13642312159101988,0.10302799067147402,6.0,1.6962263108785232
-15.17273864475183,3.2190566087505608,0.6630279077406025,0.38192389068097926,0.3093040623151255,0.44481877260444386,0.3930607488886605,0.2277270693750177,0.11840818242413412,0.1750214246295707,0.21165411085480831,0.13033734843189854,8.0,1.5389067096761724
-14.782815683950952,2.982762107551472,0.3787706238159467,0.22492321183496988,0.3786869116245733,0.6149330437075227,0.49119517041131844,0.29681505712406375,0.2821393535383986,0.40879334930566547,0.3713811474129698,0.1891850035012596,6.0,1.6078236545990394
-14.799719724014944,3.1988818779128816,0.43347206517473336,0.21822763944609944,0.27238812769373677,0.5311690233962332,0.3989477440439184,0.24785298678189555,0.2854500203863006,0.3941336035035605,0.3341473275224882,0.12241090124443463,6.0,1.689315740751908
-14.791332283830227,3.1590551264561544,0.4497548542898083,0.15265029120929105,0.1544440262805084,0.43414185258088084,0.433410094094943,0.2960630580959318,0.20013850204436673,0.23084449068108273,0.27979921392420704,0.26457705205127247,10.0,1.6621582986125807
-14.701936817446644,3.171923602829346,0.4736982451396986,0.2472897716342699,0.3460589090221234,0.5857709819573181,0.48949972724299406,0.2688649834631381,0.1946017800652249,0.238032571808369,0.2244850780181091,0.09090663810058429,6.0,1.536593136328017
-14.526556017384841,3.233933061668938,0.38464846416078885,0.13148067043431644,0.2793160541101758,0.5709683152844036,0.4652632381192479,0.33151223500447935,0.29418920787622127,0.29074743459036695,0.10766608526847729,-0.05980459210406303,6.0,1.6649238223838896
-14.692244484212763,3.258841476177714,0.5187143760244053,0.20702584344559954,0.19874741860020856,0.4873347057663298,0.4608682820265309,0.3464128011612366,0.24096515580957786,0.2688310861415498,0.20863800258329862,0.1083573249902145,6.0,1.721532280568963
-14.500645485644093,3.1742495029016187,0.16731526121381735,0.017871422436925695,0.5029811064119639,0.9263010406780658,0.5616346812260633,0.0866063790721186,0.060485295031450795,0.38481412679325677,0.43067328622541834,0.13835325180664715,8.0,1.696967854398194
-14.679374132339337,3.112386296928735,0.36818043649773957,0.1521054932430978,0.32889084393095125,0.6266922143621669,0.49704913751800484,0.31237377214875384,0.2927950353616157,0.3711371881440193,0.2534761657957243,0.06559360508280354,6.0,1.5737632080007424
-14.474142951061042,3.1996749985255564,0.41501080323311157,0.05499004885560267,0.09795587071609728,0.4376363764839906,0.5178709160564292,0.3841076579385899,0.22339536489415246,0.25768645167245485,0.2863697858014943,0.2255903299835484,6.0,1.5553350791379037
-14.51264556820683,3.312946180584402,0.1897826587057167,-0.039909228759521236,0.40892156693107184,0.886335535563741,0.558170109678054,0.17701156189291012,0.1371542912624907,0.40678746804350635,0.3465750068149329,0.05036182930236906,8.0,1.5914778190688303
-14.651856867327643,3.2710052332643698,0.483109204014042,0.1740840414265606,0.26602693214847606,0.5967299302343123,0.5066334293497612,0.2783634582850857,0.13341558487373,0.2410435422112003,0.32612605082233215,0.2188565125728077,6.0,1.605305793783085
-14.506043917810876,2.989128999866642,0.2527476184968483,0.12152978747532575,0.3421268545854914,0.6782511307835679,0.5447354775579176,0.29413070569522654,0.21872053445391731,0.3599300664202616,0.3889610523644259,0.24970788834566313,8.0,1.689566654301437
-14.661142912963662,3.1550434616488454,0.39943936561106014,0.13362943998714982,0.3065649453243426,0.6083034107152456,0.5286416624942725,0.3119599384930887,0.22941458033522402,0.27980978623929176,0.22910815581236083,0.09644305674862419,6.0,1.6899652015638382
-14.787237196366101,3.1598922331076897,0.5411412139534677,0.28232638065414256,0.2640367266578496,0.45075118089318233,0.4045703911480173,0.310647943537563,0.2766817618401818,0.28227756676274446,0.21613711480549808,0.12163617924932499,6.0,1.670827287867237
-14.730839596130973,3.110356245264743,0.5350363105957265,0.32378623432459963,0.35144353311303,0.5889096382277177,0.5275473039644107,0.29894136707475927,0.1214876753744763,0.1562551887326982,0.2226210193364908,0.21213133349302704,8.0,1.5922143338386745
-14.93080568780987,3.0822290292481958,0.42046696217991236,0.1707962458583372,0.19930826245009742,0.4900755526937299,0.4771976631697841,0.3986280516000452,0.302299014270091,0.2536261909409672,0.22991049956465903,0.20899366555425022,6.0,1.6838895293865512
-14.849400024871478,3.222589367423532,0.29658935305004014,-0.027421020629827497,0.21137841585000117,0.7001468863036884,0.618530455175847,0.2582261206969239,0.05738262185667664,0.23080543425957528,0.44014116438231365,0.3587648738825464,8.0,1.6031888543507942
-14.876568735997573,3.165269529509862,0.42439883351980784,0.13891792719446008,0.23077004250829392,0.6175180074334664,0.631355615984768,0.4842248167262065,0.34103787001813435,0.3018476845812232,0.2064191041495538,0.09098932332111995,6.0,1.5833736329103814
-14.685384946135164,3.2214029680012075,0.3737621553229426,0.10497957419442944,0.2292555938164461,0.5575587245782463,0.4992481701523457,0.33862111110447934,0.2593888137278848,0.27809274221789965,0.2576821035071051,0.22821193473562945,6.0,1.5751018955931009
-14.474958758392686,3.155843812895854,0.40654019675067893,0.18991672310279112,0.3300194193633176,0.6770977152741262,0.5810821870482957,0.3169754708643783,0.17174183830344625,0.23149377004240007,0.3069268580492263,0.2032050249255196,6.0,1.5457586901816691
-14.7392003099387,3.3164269676367115,0.5201336390598976,0.14732006283035287,0.21943272484894596,0.6074584844803292,0.5878758872925292,0.3969507466078547,0.20560333977040365,0.23571388845138566,0.24713815715246654,0.19206413465897948,6.0,1.6335806757060003
-14.982870907141557,3.1442206397067594,0.34280404809358644,0.15528242973221856,0.35297667085200934,0.6351381874176518,0.48884331212512366,0.25534094752965786,0.2563191911592621,0.37336480025942226,0.3199514056709765,0.14023699558201325,8.0,1.726795479695124
-14.595465417933513,3.184098899397218,0.3311544712827905,0.04469441464397847,0.2538529691843867,0.6542636204404543,0.6250862851621652,0.35363874364730113,0.19885049521156853,0.2658254907644899,0.29331454729189255,0.2018626007399652,6.0,1.7041280975830546
-14.622665698482143,3.1818018219137985,0.3864946023411069,0.19644399001598695,0.36880119848864196,0.6675432667002221,0.46015335420187514,0.2538557997980545,0.24749407971531126,0.36091274906575926,0.26144386040749146,0.0626465800401588,6.0,1.6219454100560784
-14.858574418143174,3.142921280296983,0.49771132786137456,0.28353344133418434,0.34887773435795233,0.637543040049158,0.5220948275711378,0.25391181928416345,0.1639091945471706,0.2833380733905776,0.3892005462799232,0.28220996026910383,6.0,1.641580667525324
-14.244088172048095,3.3025941347396435,0.3430202510775978,0.07481723399723304,0.29603024981882353,0.6884823268445908,0.5235990985160638,0.26292772799068875,0.22410191941005186,0.3912864599824516,0.37671146875127337,0.142651043866756,6.0,1.5786588367702499
-14.57159150186842,3.309661436074933,0.24977456788111843,-0.06184487482083557,0.2597636938015974,0.7255534145815792,0.5823221033220767,0.2521539593004263,0.12092301477267291,0.22714698015181,0.2327534717435108,0.17860884087212162,10.0,1.6004141071951845
-14.344037802040964,3.339272401632046,0.29332456558020414,0.04609856592115286,0.4181527769590675,0.8342109920165008,0.5486494723332456,0.10563349152076414,0.00868689534464144,0.21765678840964597,0.2687223892381926,0.04985391646037432,6.0,1.6573804418239693
-14.699713682948397,3.330087540554969,0.6197516035240498,0.33245745667708027,0.29947194049100145,0.4220854659139017,0.30603142829354163,0.15228715738470883,0.16471477742728824,0.2646615753176712,0.22470886254234634,0.10607750411386126,6.0,1.668097098376483
-14.700818056491887,3.1357627663171623,0.6066014275901439,0.3644112495055651,0.30142882938242854,0.47258946942425756,0.47599633934150015,0.36438264281020993,0.21145101854865947,0.1914330496785677,0.20154878503295656,0.20381051222451854,4.0,1.5181578568443843
-14.679300514481838,3.0482979455785397,0.4342764612512243,0.23976662508397478,0.3331171714996536,0.6011946987578596,0.5440521707745655,0.31941938371547796,0.25379164335178106,0.3319026224889905,0.3793550251832817,0.2465367282666046,4.0,1.499322593721928
-14.031252332843263,3.371463431289027,-0.0022679965987477055,-0.16322806931429767,0.5334013048548665,1.032666176377365,0.5306810128217221,-0.0002898191125092174,0.07638551867756004,0.43517900814086247,0.3695022491645655,0.04218357338951445,6.0,1.561251177103519
-14.51250261907438,3.1039507740737373,0.5973186640329878,0.42410091052732324,0.34983741522765616,0.5088909227389882,0.46676221037383947,0.37751984298439567,0.2302729947266224,0.1665654824650576,0.11409098988791776,0.08670797491995441,4.0,1.5222009949210547
-14.496879098180951,3.1472403264040385,0.5141263771406716,0.2667377634458493,0.33238785630412515,0.6176597075333012,0.5861203850760591,0.3574708324970922,0.18127019567873898,0.2207936064158929,0.24784483288564851,0.17509914901604207,4.0,1.6740009543975654
-14.806069553819333,3.137084252746777,0.5751880148086972,0.32772765149602706,0.26213791646196416,0.45923357768315487,0.42312190676836337,0.36160578423443024,0.2679481782030168,0.3043208619660739,0.30252825376042847,0.21933970239892941,4.0,1.5776488774325905
-14.611466180975874,3.1858122512883944,0.50845401518254,0.2997042806720736,0.39889257469591655,0.6371603175821462,0.4938396624297701,0.30736565897865187,0.2597995166094218,0.35452862393709816,0.2875127352883454,0.11655801851487291,4.0,1.54052548554932
-14.687255701125936,3.12456056665068,0.5125816633809278,0.3082142434928081,0.3760923604791776,0.655004268237425,0.5670536886256785,0.3629234950316458,0.18814657086603181,0.2582276109660712,0.2839269370544518,0.17295267087851993,4.0,1.5450467020047214
-14.59615919018431,3.1478639493309664,0.5791222598215144,0.35493744923436754,0.3398331109820826,0.587734953390793,0.5543662992894361,0.3930266788960034,0.23123618398282658,0.19864904726292681,0.2046427243316331,0.1512981409748834,6.0,1.5592316464825913
-14.469532193780289,3.14878620051351,0.48326073754590815,0.2640923087630639,0.4184634457262969,0.6472062692001368,0.4876304094391253,0.21747379502125874,0.16794372840618357,0.3065775795311563,0.3711115212399202,0.22563020411474088,4.0,1.707814898568977
-14.509850326680683,3.1985633962188547,0.5577292371870382,0.3397174675497603,0.3317199281866736,0.5795487303333053,0.524665881517384,0.389961518577731,0.24456489171152643,0.24887673964356352,0.20710405378019203,0.12642225573092308,4.0,1.4919217450630535
-14.59574861793623,3.1023574943139822,0.5586977888631877,0.32069919953517473,0.25722219204976665,0.48001078603280134,0.49289884249807875,0.41010993815865704,0.2894832383188903,0.25653022758173927,0.23858511979489752,0.165041830731801,4.0,1.5384184814948778
-14.64264392156803,3.061568133468403,0.40310372314390286,0.19886529610228423,0.25027323595573747,0.5437195124500724,0.5248005149313498,0.3886691114744224,0.2726118114816538,0.32267253642828836,0.31676342439424976,0.23527658079150235,6.0,1.6995562888317937
-14.59586547812975,3.063915947879765,0.36141277582083725,0.2290124802327706,0.4127041361078984,0.7079089511399237,0.5331846412995129,0.3142233267338993,0.2731985044309687,0.3715873592363965,0.30960368244002234,0.0880169448277886,8.0,1.6089879174397954
-14.50234590839131,3.269488279369239,0.4993107968009948,0.23733121196182083,0.2844690176510675,0.6142681753278195,0.5567312695651484,0.38427422475283557,0.24603341116745428,0.21633439016403067,0.16379385068316354,0.12920470813690493,4.0,1.6114664132721916
-14.581081006763469,3.14913517552706,0.5728372143279432,0.3582923178766898,0.34214619008321767,0.5628896870476174,0.5265702373038055,0.37583471263897206,0.22274339728105033,0.24352188278405373,0.26652088403804197,0.24091686013371355,6.0,1.6091052582114778
-14.551594309672817,3.123886592695318,0.5327552060875369,0.3476572189025785,0.35541474920517124,0.5849203907085243,0.5001779913817682,0.39212001624095194,0.2848103433570375,0.2849813456157749,0.22150962216887776,0.1419468575846071,6.0,1.6685345931960156
-14.441638905211555,3.2416511873704037,0.5850822989996618,0.3023410658059758,0.2772484736256394,0.516577806809652,0.49185821447070804,0.352348092446196,0.2202357041926505,0.24229133685708268,0.19344049685759362,0.11685049400126722,6.0,1.5700465405349366
-14.492352285837887,3.0921991655754923,0.5049870173706177,0.31597988058509824,0.35277713121958965,0.5626756479530115,0.4486831961858177,0.28377645432475923,0.25544889199546905,0.35426929118571077,0.35581499095508173,0.18259997458514726,4.0,1.6552731714378162
-14.497423675377314,3.075810338362456,0.538160968820252,0.39092052355345386,0.40028304510819224,0.5855720408037026,0.47636819009801684,0.3555619936096409,0.29261606160456116,0.3175163791578892,0.2394953441047548,0.12817917475541918,6.0,1.5730719803084727
-14.346223529965515,3.4946095899397402,0.4651248177965262,0.1158837516332436,0.2803357906535823,0.5678539220416144,0.3098298558899898,0.07972730803187855,0.17475810240770642,0.41115407984128904,0.3264377309046219,0.01440190209898105,10.0,1.6452443608920289
-13.842710091830934,3.3040393706774576,0.35806335557719293,0.17573759997331756,0.47310104032333483,0.7635784383350841,0.4250894087106748,0.09583311630538831,0.13143358976466332,0.3518278048721645,0.33517611041455936,0.09951746948613903,2.0,1.559749796474543
-14.10636357106302,3.3973743103854335,0.26194154961298827,0.06525061706012616,0.5544687299239941,0.9178996051600242,0.5121230270745174,0.05592233682876385,0.07244716828093889,0.3510832667648607,0.2875003710114995,-0.00678196310578414,6.0,1.7051686339804237
-14.142788794344787,3.3973633805186116,0.0017032902533403588,-0.22944019050119244,0.35350079721267436,0.8162269176936694,0.4184334253531049,-0.03915663754500145,0.06902587986463384,0.31919219634530976,0.15888989319225333,-0.10156759280328484,16.0,1.6899546350149186
-14.272308269755404,3.410807966019038,0.33163292594266414,0.09816219377593996,0.4398848535359273,0.7704213574787636,0.47773227676831964,0.20146994939310858,0.24302500913598568,0.3519598157873982,0.17710111365879044,-0.04864001577262342,6.0,1.7023221767756271
-14.345452741258713,3.2243300446628522,0.21257179280320215,-0.00498276072326681,0.371038620002012,0.7924133334277916,0.5477806850935278,0.12992239786669765,0.04018362373594203,0.2527744216630062,0.33660165865467984,0.23487143647020248,12.0,1.7422111195386543
-14.177100300314766,3.3570251319230224,0.24930268014515466,-0.044101745043415436,0.2421536268803865,0.6848824949917531,0.5827925414393285,0.32620255938748755,0.29108457575998653,0.3438028463111471,0.21128641801969372,-0.018058837033115862,10.0,1.67906850990969
-14.349471515837044,3.283538830870836,0.23221437762792613,0.018029697119942404,0.411917512880123,0.8270181015702376,0.5222425247996425,0.148281086819118,0.14790103126221782,0.362492314610722,0.30359635388789935,0.05516147072992629,16.0,1.7241138858895868
-14.21759221864188,3.5493040977079304,0.3547404032673839,0.013176316995256308,0.3131748272036629,0.7084259484153426,0.4892630867948531,0.23169552952447425,0.32543404378404056,0.4925049646796924,0.35060466689963943,0.017058147437868806,8.0,1.6819846211188039
-14.200946228043504,3.340272829180668,0.28214719248253317,-0.014971037905308293,0.3574023385157199,0.8569751476713808,0.7302586497461176,0.2993044819545332,0.05722746857399244,0.12510780377323386,0.19863268415911858,0.16565194458289412,8.0,1.7253235060639704
-14.004247398805571,3.3962587825726347,0.1788931287736908,-0.11613440803023369,0.33654982551695845,0.807173862509484,0.5576907328419793,0.2219915403673609,0.1927445646318309,0.3443523147241577,0.16821591063042846,-0.07241234490790696,8.0,1.5878996140884523
-14.074362800860486,3.3600697139972073,0.4870922946770762,0.18139241656158958,0.2555598491766546,0.523330677201439,0.3791577920794075,0.2008838207259163,0.19476843813188177,0.3441537378672775,0.3259820365358114,0.17614321292658006,8.0,1.6279154608249975
-14.330202692770724,3.24055346196191,0.36325064524735473,0.06639674385899463,0.20289750025974057,0.5679585932578284,0.5713205187948145,0.45558723405458607,0.3156232115121636,0.2231954709250502,0.06829607545027001,0.07033853297845316,6.0,1.689948005625651
-14.166173021303013,3.6042298563782316,0.30941941477699325,-0.14782206248345198,0.2551301045519664,0.7474581592724394,0.5397357359035839,0.1459825134611118,0.0945532589417444,0.27719968019881935,0.18772337763728142,-0.09115141309708778,10.0,1.712816013026164
-14.52435542079681,3.2072335083751167,0.3027424735141304,-0.011131252800625158,0.21560119656265023,0.5321856915526668,0.36969210190890417,0.21467784264766426,0.2981069036951711,0.4651449079354133,0.29650860571773874,0.04335400931043469,8.0,1.6664642204222466
-14.47107002979845,3.40590067747051,0.3138960916818546,0.09338218248861424,0.47439815606598523,0.8279785578522127,0.467789470549124,0.11734667349171495,0.14201502083502096,0.33143780549135016,0.21028133452175948,0.0019400427185983019,22.0,1.6621025157176053
-14.337731029720661,3.460121245868443,0.21878164077398266,-0.12170661547432036,0.27771938770531474,0.8013835088202527,0.6475190580338313,0.3806605118001465,0.32576307933636905,0.3321543757239217,0.10709416374017908,-0.07007297109385663,8.0,1.673998975595497
-14.580415159105831,3.1242154367607986,0.4421900955861838,0.2269916000103311,0.30628966857645523,0.6743628941942263,0.6589559263927501,0.44375515957875333,0.2468948273486082,0.17785411160958361,0.21047878711496576,0.14498204546866678,14.0,1.7090405862775502
-14.34482865725902,3.2671474233864166,0.3772928928711887,0.18033621643398812,0.4473002684173855,0.8413122085012039,0.679468981935142,0.32350711854745506,0.16670279372894814,0.22412768662272414,0.23819078101867708,0.13049136423554072,6.0,1.6873814627708885
-14.179448623244912,3.403077021994258,0.2991215436495126,-0.07923942851567035,0.15569471099892182,0.6344256117385381,0.608803921758238,0.3780037103765728,0.23374364776665052,0.17966825766491107,0.03872040539612844,0.022610041143661802,12.0,1.6568186385904422
-14.253805966813054,3.2806706104615664,-0.03503427887585201,-0.2704836587842169,0.2978553935211372,0.8930778604391554,0.5838418287740339,0.1319272661669884,0.08760798406157566,0.357552881676111,0.4378028755748924,0.2614127048577272,10.0,1.722718607044314
-14.259257549971899,3.4875908216808345,0.2924039300683452,-0.01146084345758082,0.31840882103722057,0.6724319081603525,0.376315752794524,0.12947457764649617,0.23112220394924685,0.454982449956416,0.33018407627570984,0.09374547732381863,6.0,1.6910932545037407
-14.345701969439267,3.222196910086521,0.1406558788281323,-0.05860733914511194,0.37505582308083163,0.8319943502091525,0.5918199600703717,0.26777311201610166,0.260155781220512,0.46222228119283293,0.32662768226367217,0.012886776035385496,8.0,1.7311651439028046
-14.409813032923537,3.5390174641132788,0.41825526335597163,0.05396055393138712,0.2544767166258628,0.6236822182673996,0.466553240527389,0.26727080602523123,0.24755633449729197,0.2805273137694527,0.10764301858025722,-0.08616794271506924,12.0,1.5967480319653968
-14.290525169961889,3.5723184799815746,0.3644316405544877,-0.14807637484551195,0.033187375642304166,0.5688492891299767,0.5572533344297959,0.3128674881344994,0.16996763190170694,0.29846746531156587,0.36156760798460974,0.2288195601619948,6.0,1.650166964983017
-14.27214259100381,3.4078599107976153,0.37071476920530533,0.12120573955269852,0.44220674145147937,0.8482579127641249,0.612072364606063,0.13918378291570108,-0.04908529760086597,0.12768095916197633,0.26175297876915016,0.1549679834022258,6.0,1.5837025787826626
-14.369569052811654,3.2983649073658268,0.3679487240203621,0.07112256546613786,0.21140252216737387,0.5686504584696466,0.501149710572843,0.2925705745573648,0.2159233093978974,0.32860268730145664,0.3966340949789618,0.31011294242214343,6.0,1.6545444083870582
-14.308039667732269,3.237571023685155,0.27227368082843123,-0.038359402327318784,0.2048007180575077,0.7003417286906818,0.6701162788521058,0.38543956506014665,0.20517833988277423,0.2844817766577693,0.2680598282999509,0.10016508049851675,6.0,1.6304045073820035
-14.39144362172783,3.5110210949811727,0.049332334223733364,-0.19928451396710475,0.42716351863310625,0.7355547825100971,0.13749574444153398,-0.288265963099973,0.11782958005291079,0.744880717334273,0.7046127983863125,0.22076616154871595,10.0,1.6464058646322148
-14.464811816291855,3.4187127907561434,0.2604645176517127,0.017414373415555198,0.42625994334379624,0.809096027975478,0.4635693563959532,0.10894204928075697,0.11086733096207811,0.33491371267980924,0.2521961873398692,0.05585077090509317,6.0,1.7161403383493476
-14.273127944312828,3.331676307117501,0.30043018209517697,-0.011528630027785609,0.3323963772342534,0.7791808479002036,0.5686133314119406,0.14308660980660698,0.036716192936760164,0.2984038812727803,0.3739497420811424,0.1196907687718183,8.0,1.6789175176896158
-14.494019581735733,3.3235407085729034,0.4733004733145496,0.10347384938449727,0.21471627885084077,0.6381114014022754,0.6651296309372452,0.34648968746244374,0.031372158109734885,0.060142260432551414,0.24751205947260757,0.33507150854937623,6.0,1.742396569842827
-14.078926976559083,3.376739581112729,0.2703562439878955,0.05098335292409246,0.4697899979933194,0.9372792109208667,0.6130721754056034,0.11217558206337577,-0.04943160168312108,0.20547917496063503,0.33499667701911284,0.2314466055360593,6.0,1.6510353721997175
-14.085121728814789,3.1703388690621694,0.4023385428554765,0.15088560782593152,0.20703511917948592,0.5081505525568283,0.4853373081364795,0.4128052044925883,0.3804459504565662,0.4172348054881513,0.2740983910601742,0.08364696323086897,6.0,1.5586373364570472
-14.086474869771756,3.5944895734738562,0.3070067117944777,-0.09909794475716152,0.276887454001891,0.8432606716743677,0.6685274823627043,0.18935122383388112,-0.0022432889166156267,0.20127069743445855,0.30471318260729,0.15280293729731553,6.0,1.6055424406498549
-14.361526360427147,3.168753892484096,0.21624174862958195,-0.026715065519657955,0.27710674705836913,0.6840965314126921,0.5329500610780782,0.2523514520261446,0.2065244063745541,0.32920119067817033,0.28111596187728016,0.10719935155220642,6.0,1.584071675745974
-14.2008949701374,3.3645387717684088,0.5391898240599755,0.1786529726261521,0.18510677128785202,0.5599530994055952,0.5849508852753319,0.3709843567478492,0.10998489406879837,0.07054055097531833,0.20369843124602618,0.24988855272687344,6.0,1.548006438081813
-14.382709498615437,3.4766963560020216,0.41078815314890443,0.044180319236656156,0.2860551189419839,0.6623389010653966,0.4831501486068751,0.16670852531640448,0.16022725622112907,0.3922377146408451,0.39173201887082354,0.1014428447658192,6.0,1.7159527684575906
-14.446602560287522,3.481885460111108,0.3716995296310543,-0.0509186555291424,0.1703341392095229,0.6184624562606844,0.6117884218230103,0.44526151893369686,0.37070575205096923,0.3226373685736545,0.13013679706700323,0.00485292264101634,6.0,1.5813221635902504
-14.427196815396055,3.1465440614591866,0.4791521369246109,0.23461934104201077,0.22808981515734347,0.509888895268866,0.4504478814731853,0.31187336254616443,0.16071941296269932,0.1949563179326496,0.23435629561397092,0.23578247139594355,6.0,1.550234961105629
-14.596308329564428,3.3393305954715755,0.4680664147778441,0.1499145545778899,0.2905591497663774,0.6421296357753148,0.5114843529183181,0.21054460638526995,0.10851654837649174,0.2520584678095435,0.33553118173009744,0.21513379741839406,4.0,1.5637523557155886
-14.528047519240571,3.3691906770742355,0.45915812955929375,0.07930752510479411,0.25611986314759017,0.6995629777933806,0.6132262564985678,0.2849168631494494,0.02949165948242527,0.15076052452617927,0.2705801715768782,0.24957387651418927,6.0,1.697191688148981
-14.348166527197307,3.3242575693434446,0.3937185309284186,0.06837607536985468,0.22966790958997763,0.60504428152704,0.4896960119052205,0.22857764883244805,0.15633479579942833,0.31541226410822276,0.37404302734530176,0.26101262049700485,4.0,1.704868597402572
-14.292678986352577,3.165474385920108,0.20313839928341382,-0.006215236329839165,0.3097154548641674,0.7592867087184234,0.5971084954370445,0.24147814646506305,0.12790570565545686,0.2609650790017416,0.2821918428110486,0.17479924631365337,6.0,1.6633481852201186
-14.2884717547984,3.1596266924196814,0.3365856821467461,0.1999817720095408,0.48080364165658396,0.7829644934147963,0.5162336000926944,0.17184802649307063,0.1287295586793782,0.3379143160868134,0.3013166464003242,0.044129930022593945,4.0,1.5999496392825734
-14.276458658320829,3.324859318524317,0.3374354068049531,0.02852327028105618,0.28068891251012607,0.7412667037067516,0.5959138597346997,0.23624870749587995,0.07674886519981193,0.26103188802760535,0.3382956938016775,0.16581687109889875,6.0,1.6388578382173384
-14.747517784807357,3.22311849069962,0.2948207900056573,0.028080999842102758,0.3330048397221485,0.7622586324115164,0.5869750952395905,0.20750185176744304,0.08436679139100649,0.2863735410131596,0.37025373158501995,0.270882129366687,4.0,1.5993443392866815
-14.652475296648069,3.0006163937489836,0.4289482884585454,0.29236985059876935,0.3448162069587079,0.5165071910150271,0.3733369244696837,0.31312877857302013,0.3074388000766873,0.3261969547489292,0.17406318397588288,0.06543993660042678,6.0,1.6405217804216488
-14.745161882565561,3.028820893329125,0.4969118491202322,0.2938992179572916,0.2962087917666998,0.5331733323121275,0.4867511390693793,0.3530285340971921,0.2440358119397801,0.2657169004088554,0.27431370142921835,0.15836132085311216,6.0,1.604974972786612
-14.854454749177275,3.2099551482337843,0.527671174462293,0.3005896271765234,0.37641171316496724,0.6343874162882093,0.5151708892175684,0.29050904536481453,0.17780526102280986,0.2178892664626511,0.19093928698750506,0.06636066098709398,6.0,1.3728435359239597
-14.557257860655016,3.1159332432686604,0.4727440235602177,0.2887953039894907,0.3455090959387896,0.589448538458439,0.4623945384728585,0.25165647291828075,0.17644455267393705,0.27571724343758464,0.26925778644974807,0.13731585113175693,6.0,1.5966451561984232
-14.601881307449691,3.0480899623341235,0.4224928874972482,0.2510533229739531,0.3349876215989148,0.5720825656390598,0.48918609264854784,0.32125884397055754,0.24010224118737955,0.2868538164839022,0.2444133325626813,0.16487862656562297,6.0,1.549867198968315
-14.654251075660438,3.0948426769395083,0.3346804826144171,0.17995589239186766,0.4298876174247676,0.7238778985045837,0.5129362954207715,0.20936781551653677,0.18262187432178942,0.34292921694147377,0.30800789990102573,0.10022343739232992,6.0,1.6103498992490781
-14.750731248247028,3.1553622104660066,0.47648072248394974,0.2255360008064248,0.3303571984337498,0.6039885783567045,0.5369125939048843,0.34642114812464264,0.21817654905209583,0.2501484641747243,0.20166676763215863,0.10430685362484801,6.0,1.5835738593532453
-14.677337027766468,3.1846925494637572,0.523462404090521,0.23440176204090812,0.26311406441078683,0.5681826543641422,0.5790960878643283,0.3740453902168145,0.1718794690557983,0.19103720139888528,0.2383621720717421,0.215197031186721,6.0,1.5073230696441482
-14.740774834127103,3.063605756820773,0.5792413926920084,0.372042620828524,0.2901929293266633,0.5016758819041487,0.5159470389851416,0.42525499294081165,0.2712113300564136,0.1925932253140034,0.17813956142885345,0.1442066014274204,6.0,1.5062054053670617
-15.20338493274683,3.2446855390191063,0.5265455635483786,0.25721835333212933,0.31144212079196554,0.6042911722784295,0.511336184566832,0.3100902349729139,0.22646935899217324,0.3160824134694789,0.31366727732700095,0.15279910930172802,4.0,1.5013818255618574
-15.23683542558572,3.5459971145631,0.354748849541943,-0.09208461665750259,0.23119447284278183,0.5857173418515857,0.4089404565718373,0.24774383727161398,0.3640504501456804,0.5003418906063188,0.2925969637921861,-0.022097732330194093,18.0,1.5840185496949268
-15.121375384039078,3.9101538430102822,0.06999133822381266,-0.7958083184569337,-0.22199869302515063,0.5487688745275979,0.5110601722900812,0.18743041150733317,0.18120050606892724,0.44197807507233466,0.4016986173606567,0.26041389841167273,8.0,1.6488372941538
-15.870267562660038,3.285749345521552,0.1655482050593367,-0.16976021075771164,0.19749303708972799,0.6379937489646117,0.5664630306062233,0.21259553429991523,0.22724898607479357,0.37913926464505665,0.42724187944394515,0.183325188909434,12.0,1.6099447024960438
-15.698728400901645,3.579957768989148,0.3836160589969727,-0.140156525428479,0.31658385144493517,0.8529976340473742,0.671769898374288,0.25335535371102297,0.061732743384975156,0.27369095965516743,0.20168431674001874,0.008691299732434772,6.0,1.6562637750763858
-15.738337861357593,3.5672513847825726,0.5988623983574435,0.1817101815953605,0.34376669778378766,0.8200913668379604,0.6726233813453392,0.23292262343585707,-0.001921655437013392,0.09695390577189003,0.1561408764264454,0.158387655189974,6.0,1.5827462222445001
-15.528353195520511,3.2235029854502772,0.595995348341247,0.2936510450920593,0.29508527731519074,0.5538917403650623,0.5916685877239762,0.47526397987985036,0.28702402860531384,0.21493459168965365,0.21961583698322718,0.1965554548509991,8.0,1.5497390162524871
-15.333568272778587,3.474995455673715,0.4860181938669159,0.09325722397557308,0.29225624431472386,0.6520920503854654,0.5206632951328303,0.28093233491269864,0.21404481044415963,0.25099063320019055,0.23150487703145087,0.10421009415664065,8.0,1.5329933866345486
-15.369371177511182,3.389775531933147,0.5740525469839319,0.2791099188076801,0.3849023438618716,0.6046592919297142,0.4398985112456273,0.24370638647823112,0.28632100801710486,0.38214016520273963,0.23137640752542038,0.048970257078150864,8.0,1.5604406924841336
-15.41587336824908,3.305087970053039,0.5826956536124017,0.2619944546852019,0.26424213630255927,0.5602836941752645,0.5423514672121216,0.3777855306004214,0.18195615905211404,0.17393142684219465,0.18296870733851706,0.13637989947050821,6.0,1.5610679675692407
-15.330971083541272,3.457197635533996,0.5425574669340236,0.07413945866491851,0.24384389003910972,0.6233403248158792,0.6579393370044799,0.3364463023661958,0.12007204644421904,0.14507724656888554,0.21270989427313713,0.14032714767045973,6.0,1.658579369862256
-15.264727183297158,3.401684287880851,0.5345311238620976,0.08671522672624121,0.06884842858182141,0.48633678293622834,0.547852322165401,0.45418269633701147,0.29347016334842024,0.27296072968714025,0.2538288567129545,0.25321246185214336,8.0,1.5668897412231193
-15.28088717936617,3.430061043225412,0.518907895977403,0.13971489952687477,0.3799922228633331,0.7711959738158858,0.6169224088433318,0.2573612304692673,0.08608193221887116,0.20766054351376195,0.3046067975269128,0.16846870934324848,12.0,1.6708731834438666
-15.310733153052643,3.3214392549350324,0.43010392447396195,0.029486912370674592,0.20642942110538348,0.6309685037433954,0.5874093368922404,0.3676589703464544,0.2402037952038733,0.3719425841288403,0.38741267594978335,0.24249837035129373,10.0,1.5554195043141594
-15.35797347562776,3.219012210189785,0.3894260097380514,0.057192796514448696,0.24976597051440025,0.6528796735142074,0.6154742785869616,0.39217346373869,0.26778917654199663,0.21602477222688282,0.2615614207551032,0.2311430863003388,6.0,1.5796920710262286
-15.260836171239296,3.39670949841151,0.5878616340260943,0.17368749320467491,0.290959902741436,0.5536110767978077,0.4134527281641819,0.24830312771887775,0.2123541683838031,0.4004592324724145,0.39929150506720545,0.1853834630010771,8.0,1.6848571106204344
-14.678319628043557,3.2001007960655246,0.5034334121334965,0.2611040549835778,0.3885169938714975,0.6331960257079756,0.5311990169998335,0.27212379504967443,0.16998436643093962,0.2481064931952947,0.269636622585591,0.10736055543424688,4.0,1.5962361549931234
-14.749733823502378,3.2255607169208593,0.6593907662947416,0.3929773491405152,0.29544266250212897,0.5125104221015608,0.5111087226492725,0.38174853732745373,0.21910355385162275,0.2275577058217392,0.24882159068529391,0.23064119529794602,8.0,1.607312238982022
-14.710098392637626,3.083605794235432,0.41037819802259223,0.26845764020639273,0.40408155571412685,0.676433444612982,0.540596816003498,0.31787012442236234,0.21613192251595661,0.2703557048301688,0.22376206462958087,0.09978519816941753,6.0,1.5096744204034656
-14.882876383481864,3.2826338404377724,0.5142261427389248,0.2593403758380982,0.3249991361349993,0.5568994009335657,0.40065555031731936,0.2234173060817036,0.23901691081926063,0.34487842143164305,0.260019538132057,0.08695293907268692,8.0,1.4928078292472509
-14.766352958368833,3.1750738719440754,0.5309837570571443,0.29052573286379985,0.38078533126695113,0.624620304570413,0.5415887082448043,0.3567232829063001,0.2539674698745589,0.30795271078870534,0.24470597584219894,0.16222623288440316,6.0,1.52864689420944
-14.79105741704039,3.1842735035225127,0.4642187490656534,0.24157436284216527,0.3778656587398538,0.6417932979774972,0.5159779033462097,0.2703432370399298,0.22207206107041383,0.27766249638167895,0.25535911867786604,0.0806832827230593,6.0,1.5927025925270253
-14.783483594864597,3.269608407782511,0.5425334012963494,0.2578795302789586,0.3149113125794265,0.6065417068805519,0.474454438918937,0.2705184472564116,0.14840604207390268,0.2506124866973319,0.26952538668191817,0.14396866752393297,6.0,1.671909026306746
-14.728432025373394,3.3735845918242466,0.6012466137722117,0.3090078032150341,0.28984811210560446,0.5243293606304571,0.3834945466362969,0.2499698579062337,0.2098180228275157,0.27457617460473505,0.1847443659935719,0.04778781896024062,8.0,1.5147386451771987
-14.776568412612983,3.192964569014226,0.5183924567853733,0.2322883310131106,0.2572948248093305,0.5725947280558346,0.5877881630763186,0.39672200632429655,0.19282458265399238,0.16980705179782374,0.24377869398443644,0.2519617814733544,6.0,1.6304450442385268
-14.731817062742323,3.231495927326894,0.4920851099203364,0.22666979139675542,0.2621623963118092,0.5578002191342402,0.4908469128671274,0.3566779854702768,0.2650455883279935,0.3469210193972413,0.31889243664707434,0.16139518660665775,6.0,1.581802403661325
-14.72982808795842,3.337021829207922,0.5589014469573064,0.27714989711675553,0.41014889652224845,0.6256726527478096,0.42174572615255423,0.16404938634116728,0.18104878255716333,0.2985195548174115,0.24818080693781272,-0.0020907630787219203,6.0,1.47541514836502
-14.608056498236037,3.2914339578721172,0.40140254428654487,0.16537732082887438,0.4359747326009154,0.7824084341023742,0.530490877352046,0.18897148413031672,0.09703745326641705,0.2521966830562813,0.2448470188466602,0.07488669553864703,8.0,1.5928026765149017
-14.707245715930592,3.1750808411682034,0.4254655176657019,0.15275720705104148,0.321501992402473,0.7046045619409558,0.6602392182022823,0.36749050915433534,0.1262534121522298,0.1428610516635388,0.22546773540362286,0.23824511490789138,6.0,1.556759314606026
-14.691016815658486,3.2954942565959318,0.4165876935738691,0.12944752256362604,0.3392556375317973,0.6663605691010192,0.4284948005432816,0.14544088108273812,0.1045966555974544,0.3777928405744222,0.38094819501076915,0.20059592032835377,8.0,1.6469130500341727
-14.831723382160856,3.1046860021501503,0.555580039409117,0.37522002335639193,0.4025373535204221,0.5855336948359329,0.4450986603325052,0.3383676243257332,0.2812837771912739,0.3252726848384923,0.20874463859150308,0.08885462125151333,4.0,1.5344371241324535
-14.813648415572445,3.123661732116691,0.5206818633133292,0.3054770981602578,0.3573904697486388,0.6046319670530866,0.5337802807564889,0.3641142719403306,0.2300631579896612,0.25760392236984353,0.2666155519751131,0.2062448421196993,6.0,1.5307149522076762
-14.844330772753244,3.212080941294134,0.5121655570032353,0.25860236795369584,0.30452017118426244,0.5870355194124113,0.4810943185011387,0.3200692280441842,0.2525620186776081,0.3111012689268646,0.27738557425212046,0.10243111599294191,6.0,1.526569247126361
-14.672118859026876,3.21192420816251,0.49088687103390705,0.25773854516977296,0.35748078744768946,0.6710555586933493,0.5802563092544244,0.338602820165743,0.21885098669836145,0.30415870357906966,0.30955923759512194,0.1539021761629895,6.0,1.5490669790372786
-14.693961118149023,3.121916559632643,0.5355704856127638,0.31389609913137867,0.33604371017285994,0.5762853229257855,0.4979481526258287,0.36477805692308524,0.2104910357249295,0.2098562626135812,0.19807140583204783,0.17948964420102625,8.0,1.6806432981780586
-14.922808122422497,3.2162838613790115,0.5642446256791513,0.38312200833119237,0.48971274616791405,0.6683568461302796,0.4615562048648059,0.24001982823345258,0.2520187968512494,0.3990558929034158,0.2941902940823395,0.07030782852419139,6.0,1.508438284464599
-14.745580274137957,3.228418111070245,0.55520933152875,0.34099373491767493,0.4597184319921475,0.6619437317010113,0.49667388090394443,0.23111980292975404,0.07960664238001702,0.14503943990953594,0.19404770472818478,0.1772593407574803,6.0,1.5819035229423266
-14.735089973155754,3.2703945041901212,0.586823747604305,0.28865855636148335,0.33042375152073433,0.5975148714499092,0.5779276199973917,0.3895396191836354,0.22427128834461352,0.18213426266234725,0.15073147819778054,0.09187585427023759,6.0,1.6042674693964916
-14.937703070654438,3.185453041209055,0.5910151120158665,0.304839159611873,0.2713021304031561,0.5297418171523667,0.5697946679413423,0.4088832946993492,0.24653734865454588,0.24868812617993524,0.25308121793398064,0.18080976629024198,6.0,1.5150354856947845
-14.439285378820736,3.3132223894136645,0.45817289601189015,0.17764741326385639,0.2964620774857216,0.5717855935326512,0.44328540463799276,0.2647339501645125,0.26702230511186253,0.3580849859544264,0.2668457597341101,0.09025129335271176,10.0,1.6710610042363243
-14.218005947661986,3.583999005164864,0.3559984525190202,-0.06492540798974415,0.23901408084697112,0.7349683491249042,0.6332385875680271,0.3107609376410461,0.14338332014980448,0.1803143338178282,0.10871211359951437,-0.033199722647999724,10.0,1.523877219073048
-14.558761163705272,3.64983966435479,0.5319710488064306,-0.015052178364412215,0.10946429838721008,0.4267178621462117,0.3216679577548879,0.14946233173518503,0.19073955911112103,0.4077174275500809,0.4329532894605232,0.2510270415821708,8.0,1.7535244095239908
-14.709047834335147,3.29222774560108,0.22217467269785396,0.05512779146541971,0.5389218098911653,0.9811188545794626,0.5608817382215265,-0.008852102296945392,-0.05222992656277112,0.3497829522447814,0.5050092224433661,0.23625492490752048,6.0,1.7517539648354612
-14.30664973728227,3.6093949855335046,0.15049755532794168,-0.2803841332036847,0.25938638002607145,0.8297215786499694,0.5303370454668417,0.08991157514361103,0.12681989664221377,0.4471150575232134,0.39619358757557416,0.09199097776518665,10.0,1.7814842405786868
-14.59421936120404,3.418196571576561,0.3554994507920731,-0.05553844967621932,0.16512526368810332,0.6953643670426904,0.6707408995464889,0.35467686069385573,0.07020321715748415,0.0765470115586373,0.16300105026667044,0.20275435451771132,10.0,1.687596738939359
-14.219113433773556,3.4926696754103967,0.23865187485899828,-0.03222917639368838,0.36708405373315567,0.7897856999682894,0.4968654345127321,0.17161292351254492,0.20503948700125801,0.3694885254627787,0.27262269065640604,0.02515832675156363,14.0,1.647148033642634
-14.153457508121987,3.339237301823583,0.07913081254798543,-0.21698210670919899,0.22397835751609857,0.8143325283052782,0.6290416263673126,0.2519467493628002,0.1794012014847563,0.4251845508832587,0.5119792027402005,0.31396990414384834,6.0,1.7161844169238192
-13.962741754834305,3.39168348307439,0.15773553581906108,0.0029220946182799273,0.5192764118079578,0.8876278948528483,0.37643029795249067,-0.07321491820472119,0.08513906044757043,0.5169595802962993,0.5268160545611047,0.16092388077272837,14.0,1.7227390836155183
-13.853683038281062,3.4525114322931776,0.29441976069072584,-0.05773528266777146,0.21692221245774485,0.696161422290416,0.6430067473289715,0.4575554453350781,0.3145898692159401,0.25584443131853546,0.06161907234380086,-0.0312634972995709,8.0,1.6843599942559255
-13.878150003184778,3.383270684565508,0.37602539110031774,0.0005123594311378255,0.14478133448676367,0.5987307709508157,0.6306075127041623,0.4176205462592486,0.19263292726819928,0.18053524244028235,0.21435375344340174,0.21513315406433037,6.0,1.6238178054387198
-13.949363850068206,3.3989301365310993,-0.0009892249359099714,-0.343853967921529,0.18817720408377026,0.7476300193829752,0.5223472105544775,0.18594794166426448,0.25968545008487603,0.5030788282340404,0.38631177376652953,0.10659152931470275,10.0,1.69743960479249
-14.32170644925584,3.2694103578122142,0.24254661594092275,0.03369795907396475,0.38331771362509615,0.7567938665234555,0.4285721841431144,-0.0066649287809430816,0.027679967305296822,0.4474512159612327,0.5635385252848999,0.2770319040072599,6.0,1.6397869292822482
-13.900540974216351,3.3450267561400797,0.12911216701844297,-0.08992284241527317,0.37474871796284354,0.7951019606170197,0.4900689221755558,0.167323397757221,0.23150922181123296,0.4083385326636878,0.2612645667595566,-0.022073389472124533,8.0,1.7064621392999697
-14.25058999076146,3.6684852731368442,0.20091358864191516,-0.2537450907103054,0.2361489220316548,0.7763860687517168,0.509624016283843,0.05229120526468256,0.008991505440623361,0.3128431528597648,0.426026005725466,0.3461833214105485,14.0,1.735517589628187
-14.352604221474943,3.623429733932804,0.14695719088057524,-0.16626892095276605,0.470832107240743,0.830464720512743,0.3041745622558485,-0.10642539847867205,0.13950441535572744,0.5865604191545526,0.43497008498598866,0.0773420844543643,8.0,1.5419955258110227
-14.548348446586111,3.314591296852697,0.30457114870661284,0.13537571222057282,0.5492675993075826,0.8453273474247449,0.40204599634237753,-0.08002878853533751,-0.0016789670396501963,0.4454444081745634,0.5394426572784421,0.21693728080524974,10.0,1.6570093669547012
-14.006710524861257,3.5038631280339034,0.037025969749967656,-0.2420352129256915,0.45125022475488924,1.0308287032455876,0.6073120965216658,0.025097774176840285,0.014407385887964218,0.36247823126044443,0.38223172386688214,0.09900632160456141,10.0,1.6862402090752484
-13.999165631546171,3.4289634990687157,0.24567374789210092,-0.03231347888245597,0.3235750082555856,0.6789494053315475,0.43358721562157143,0.18312281879058886,0.26101047613302325,0.4430316898892819,0.29808894555984544,0.04480060926081429,6.0,1.6435658748490027
-14.185014820889196,3.379971716012159,0.16204983511613966,-0.10854457034277812,0.38206903748169097,0.8499193819909839,0.5465045483642559,0.060151331513094194,-0.006943826513030701,0.28602841911691,0.4183167378559553,0.3170580323170608,10.0,1.7042775942924857
-13.73627508139147,3.5722367425734287,0.26870680866800206,-0.1256692021307816,0.1173689652933505,0.4720096690177084,0.27894298629563236,0.16657593341624208,0.37873494249081857,0.6116572261092323,0.4415942194089116,0.16642852709323733,6.0,1.6353251360775007
-13.927135994113105,3.5956145842077705,0.043947783928908475,-0.3678436821253619,0.25084184636616486,0.9310021065293497,0.7139974273593961,0.24251140813667355,0.11897093432718675,0.30985358150233866,0.3022978448986382,0.13347367370749683,12.0,1.6578963670422038
-14.641078041834978,3.5329299471659477,0.3983512524760723,0.03493459093606134,0.2607104327048246,0.6506220365105571,0.5256750892276959,0.3800057330016843,0.36064885603316243,0.43317768390103994,0.24143205965535758,-0.02287684678118826,10.0,1.6831545864328654
-14.372979635384079,3.738142481470054,0.36497119209465,-0.05690324007468392,0.3752307765212006,0.8376703261580936,0.4099309370304334,-0.1579712462711198,-0.2030447125768013,0.22401296011174116,0.3573068675489074,0.14788575382751407,10.0,1.6930944309689884
-14.521142500821918,3.090391033255453,0.5141715041201542,0.32704006613502756,0.330500588051022,0.5400876057113222,0.4625401854253444,0.33243499353294004,0.26715739394127147,0.2993370297391568,0.2569598035412937,0.18328342102556944,6.0,1.6027930635211634
-14.416645911387576,3.1489515673823076,0.6168857637359189,0.4086492326975449,0.3622411758562657,0.5366328425422958,0.4503275614535185,0.3212190448943042,0.2209447653500041,0.24260265322691107,0.21379099415201522,0.1368784358128262,4.0,1.581593216274608
-14.382534398387932,3.077963466111732,0.39045451241998974,0.23410903736128533,0.3734623443478871,0.6830762005305226,0.5463356612239765,0.27249550648641685,0.14852564489045098,0.27333881083154,0.32688475055683164,0.20936623066757915,6.0,1.6179733289236273
-14.329656893926842,3.1644399043325877,0.4220708752917588,0.24607928090630107,0.431678978178878,0.6342644415422711,0.4337903326618372,0.26851439962448026,0.3241873292312707,0.42455562903165733,0.25661946103225,0.0037627961783509613,6.0,1.6296659395460014
-14.492396553951103,3.18134117989399,0.4620520123787041,0.23961506216922374,0.3080362909813394,0.6110786538898192,0.5043084074028532,0.29601755249178574,0.17547568429984964,0.2694140544538167,0.29159045173714987,0.18559568201700932,8.0,1.6248917512824719
-14.339074067354083,3.09113242340503,0.4002648166342962,0.2668538919443257,0.4386612406411913,0.7336021235307915,0.5658891067532744,0.2998752619923023,0.14443880335134246,0.21619886413703293,0.24498152550904656,0.13984051232148625,4.0,1.5330903028454133
-14.344359052302593,3.203168034151152,0.5972833774468564,0.3610278993747295,0.34376260369741996,0.5988787464946312,0.5702237036349633,0.3710868042762513,0.20140952566744993,0.15849189597622867,0.17855540704336478,0.11235697902569343,6.0,1.629187909513604
-14.424864368299168,3.0583420231563316,0.274320158813211,0.207235415741984,0.5154767261240722,0.7831796650284116,0.46906069100265246,0.17554829517972156,0.20784124040338664,0.41333661148050377,0.3267608789653099,0.08203241148008913,4.0,1.6796995694942614
-14.829685823260757,3.3915823588138543,0.5686663783821542,0.20189485906544996,0.25181600235015056,0.5506673553809665,0.5474052104912863,0.3448046877668375,0.16252310082688215,0.12591965764287386,0.07999162122681108,0.12546176473129556,6.0,1.6142244116143418
-14.442167856619381,3.0529906694712654,0.47057347378735814,0.39236758990465737,0.5100994541098791,0.6544055430430917,0.36798525908218066,0.16152654842988506,0.17320845573801957,0.3538327037797726,0.29110391015476256,0.07599582189010101,4.0,1.5213777477337298
-14.376033627599561,3.1751323159831015,0.531399594561957,0.3186068377979195,0.3657167057998928,0.6206973985372839,0.494846877784513,0.27624350028853784,0.13404341252201818,0.19661761965354652,0.24507690040744853,0.19696580829357124,4.0,1.6142573979870112
-14.475458995799263,3.0138674324504793,0.3917905436631346,0.24941471091613696,0.34378125552428934,0.5493284886282251,0.4412974376501052,0.30973462565990456,0.3227840440161639,0.38190753222572965,0.29828749774609253,0.13345169238075782,6.0,1.6030518148574646
-14.51110444939675,3.1680855828704138,0.41551584026357724,0.22326902338499147,0.4065174185732427,0.65963015925536,0.4866602509204442,0.2942311899992142,0.2761870658223077,0.3515317629362237,0.22820640109588428,0.04569874458049315,4.0,1.7119828122626726
-14.069898300289504,3.3487826059238275,0.26473015225900604,0.013782937518672739,0.35751448697499777,0.7437586274692153,0.42912427927144037,0.08355236335502231,0.15562043319815477,0.43831590562601064,0.4140586055744532,0.1549695161318172,10.0,1.6757989165311153
-14.322445634390816,3.17981650585046,0.4202596337877189,0.18320519329605478,0.34450527211845794,0.7232543886346898,0.6414288969763082,0.3613807489924146,0.16972742247035888,0.24551866809095552,0.25333776716563117,0.16260499321341632,4.0,1.6469631827859756
-14.441414808556985,3.2344218462178396,0.4884253089629333,0.2115986634061919,0.32055438939695835,0.6088047101144959,0.5233262078222394,0.2617497089402587,0.10700013130657877,0.1804757830459737,0.2165862703436588,0.17995651250772193,6.0,1.583549266081032
-14.586761237868608,3.202467687102919,0.570934097016795,0.30427265141595894,0.32830602749617177,0.5494892164079574,0.4990608920665147,0.34391080775478383,0.19644031041163704,0.2045169800378111,0.20555571578047316,0.21853451764411846,4.0,1.5854224578973375
-14.414969419115772,3.17789337402531,0.5428992323105615,0.31395364442992557,0.3399797328982666,0.6213401936732916,0.563864642115946,0.3575598401370603,0.16927502358587987,0.1624769538165819,0.18160646924858767,0.1502812718466632,6.0,1.5094301100362713
-14.28251998889459,3.1602633505607747,0.4090634142964127,0.23376465487915724,0.4174765043856488,0.693221412975477,0.5049773156161399,0.20097155207370576,0.16176244795223899,0.30884651227808446,0.34227889846798565,0.16248460268269477,6.0,1.731023129670972
-14.702479427964915,3.1011545058415497,0.5121102269498933,0.3600592077703645,0.4223785116439074,0.6344831064404348,0.48535190756899094,0.3161892195869117,0.23795272497990325,0.29166626417810326,0.2553663903554806,0.10959395526789913,6.0,1.589936108236831
-14.499971849328361,3.127494375544268,0.46803641444320976,0.2814047312905762,0.37364044126861473,0.6368713336857341,0.5068282505303776,0.29262204276644865,0.21497665185247186,0.29159438314737485,0.2672678379791134,0.15888226062471436,10.0,1.63250266825274
-14.370674929035491,3.106283350392742,0.5416639692879396,0.3718758471232872,0.45298702335857377,0.6329406449727575,0.48082956657129367,0.2693899575239508,0.19036952958499728,0.2529934026769715,0.2100546737068305,0.11595662776967397,14.0,1.7050776036008721
-14.800739812478197,3.2387732879420907,0.07381421076878293,-0.18354616111788652,0.29611133901272313,0.7773993996438041,0.5381279441134723,0.16842532454198017,0.13087113005401377,0.3255649346143259,0.29382684726358144,0.1297251421602182,32.0,1.6928729251607224
-14.504291775503987,3.382589183166921,0.07981559936207358,-0.27116940803014394,0.2066204090252255,0.7964142036396904,0.6227770855294656,0.2631647164648011,0.19926674809120792,0.3973217912846065,0.3174022551415703,0.05856063553256908,18.0,1.6551301036471235
-14.467027254795038,3.5045232419391104,0.17111411355615486,-0.3323760348278707,0.028163360726815773,0.6948803781553499,0.6750502916579368,0.2998961956757148,0.08286836648321277,0.24975637224520855,0.3470999072927198,0.23692921627440988,18.0,1.632685834160133
-14.504227943512698,3.5145824617656825,0.4538902832907934,-0.036735251473385584,0.10246148577070567,0.4678732911053085,0.3557456131794884,0.20471303318029593,0.20893639311535056,0.3863923212722853,0.297860447965292,0.0062401684487926115,14.0,1.760461247152291
-14.659794505192284,3.3566067089983855,0.12210180313928426,-0.34787322627326445,0.02517330489453061,0.6593131298465261,0.6101785024727724,0.18226388605775012,0.025082825220370364,0.25126004988042255,0.5322366994847795,0.5476610732508879,14.0,1.7433273622815
-15.032125361261064,3.432565185334962,0.31628420006775376,-0.14109969476007087,0.13454769179595066,0.7565699734634943,0.7954018844267555,0.4095343237360687,0.0038031624623853476,0.005640257536103973,0.1823852361517722,0.3178362077481403,10.0,1.6540959830986544
-14.914113327991522,3.299441932727973,0.3462866846764394,0.1128295733193035,0.40182618914262364,0.6062161171588416,0.2746833117426367,0.04677288317799407,0.23473939041775377,0.46137170751224893,0.3268548470411264,0.07551051971158414,10.0,1.6067073962213367
-14.98638406629991,3.1661072514863475,0.22767460221763275,-0.07369940802567582,0.20550298492221883,0.6315379136577386,0.5078728596530565,0.25932083618493845,0.18184019676741245,0.26691199472764787,0.26675716458172893,0.12540889077505873,10.0,1.7036499260603166
-14.638398113664786,3.3046575575068338,0.28617132770770093,-0.009360059453383824,0.27590501942259316,0.6804110787275806,0.46903816318772396,0.21387980258364545,0.210828866761607,0.3444343247872734,0.24628531463224151,0.030696066535128234,8.0,1.6618623972397806
-14.66913696035468,3.363187789130036,0.37944112890862514,-0.04630425654445022,0.0804701757303156,0.516060968731479,0.4556224433343104,0.21105512050320002,0.10945805658738483,0.25820819661861183,0.3240529301578585,0.208104131072201,12.0,1.6661211603541106
-14.494918442273573,3.468065238926723,0.33220348778058006,-0.1545664775440144,0.0606323542593394,0.5367044524742554,0.5391689869066714,0.3546250038665305,0.3333784044956336,0.36502721806936916,0.15451447291996712,-0.14447118198863187,10.0,1.6717189529914334
-14.3363210204437,3.573244476396364,0.30962634456234267,-0.1762531069829069,0.125736752503784,0.7168355510877433,0.600596380725878,0.1695309602023275,-0.09030139723903348,0.017986268188741914,0.1457237130506192,0.15436176092715617,12.0,1.6957465947635038
-14.295848830838688,3.464127858717711,0.15969992016045276,-0.2219189080363379,0.2264535988760225,0.7759049429420357,0.4465091377987698,-0.08978606156527111,-0.13868552942857343,0.27873357784966896,0.46165214791160514,0.1850224212184119,14.0,1.687797378400246
-14.475397426712034,3.3954863816279834,0.16323768468783723,-0.22786733262597592,0.14717763262980635,0.7421853589660836,0.671555446614444,0.3272203893055454,0.13026364385896516,0.2125529503550354,0.18648646909952396,0.09528829854931717,22.0,1.695158697886404
-14.74700859611497,3.0923457638963914,0.18827585450443873,-0.08287485388842653,0.1700715092585721,0.5222615454382127,0.43837160211496784,0.238326275974769,0.2800600265367914,0.40893465733178425,0.34671394231602815,0.1046737308141664,10.0,1.7058417642548656
-14.868094386768346,3.416556760099687,0.3378732057645706,-0.13743997666024227,0.20984896512052129,0.6621251742206803,0.582673222844835,0.17963084405249904,0.08310156496514479,0.2219106726095113,0.3637902438395972,0.2863457766192513,8.0,1.722859846093508
-14.94061383970943,3.055003081641261,0.30084109880596166,0.14144256108996614,0.34291780274761646,0.5767708572891896,0.3654885991135698,0.14326537394366357,0.12232043630266586,0.26448125930167765,0.19757919279873043,0.07605963072571843,8.0,1.708463930110192
-14.630413349384847,3.402742702980542,0.10229311935446364,-0.2665758043384568,0.26314532223492865,0.8063390799260808,0.5228694796793402,0.042160429842093006,0.04923793953294239,0.3672670478046739,0.37491256215024354,0.02312316827502208,16.0,1.7315468409941206
-14.5275097627891,3.432563946158277,0.23405633950663418,-0.2875307903642782,-0.09457661090842956,0.4493824642837101,0.5035042393459558,0.31205265535965365,0.19464861302927683,0.3397283460830538,0.3755132294634399,0.22614591329433573,8.0,1.6617676400531574
-14.48215804261214,3.3787145818899074,0.30370145361600964,-0.09850523953643359,0.12518415762419396,0.6369632637980807,0.610873356585329,0.33220718703624696,0.07993480922962037,0.06676430207845215,0.10674642632819983,0.0785063063097594,12.0,1.6810428498859222
-14.613921968786316,3.2579882491533647,0.22724682491640408,-0.16603396055003322,0.13194919427203206,0.569095385364509,0.44761988140865455,0.13934732117820575,0.0991061650684084,0.2950948983844505,0.2806499662548279,0.0865728013586943,10.0,1.7480388063367407
-14.4862853104248,3.697886391410407,0.11359946434631926,-0.4513025009134072,0.039396376905271376,0.752983747063041,0.5813071842820379,0.07521274842449745,-0.030751477098777735,0.3818711420624976,0.6360489842371919,0.40036062441401626,10.0,1.7479343000464571
-14.414449783746605,3.576174395830565,0.13165847604297012,-0.1434424197150741,0.36537531489172914,0.7591064141852979,0.32376231530705696,0.06460653633002797,0.23029317710479633,0.38675035126277807,0.1099460819179134,-0.10654789907879662,20.0,1.6096144288564298
-14.65347356011368,3.5336297712867415,0.3218217213886618,-0.10021230988545676,0.17067981633446425,0.42703499629380404,0.21729995506162403,0.06637211065521895,0.3431928128821154,0.6040965471953625,0.3373386132111902,-0.06110831513527441,10.0,1.6651092426159961
-14.829327967202502,3.404251410395429,0.25149303837826076,-0.05064296796781867,0.31188924818151953,0.683636827362171,0.34722476054660767,-0.04165470671753152,-0.027662482330900642,0.2532131825086797,0.32384671266140236,0.23049537902762135,10.0,1.7273824613901154
-14.705306974041044,3.5582141534860448,0.1375622217309768,-0.21762709820685255,0.33611417532789145,0.8357120228347816,0.45799738398726464,-0.033502159909123835,0.018163413508144276,0.4165964396522771,0.4422254486495325,0.11899339819566984,12.0,1.7293288879794868
-14.469247883955601,3.714392263629038,0.17291118325815086,-0.3182874560676046,0.20939657585875954,0.77953261848249,0.47102942949992427,-0.05753413260607382,-0.1161445237523129,0.27526877249393833,0.430289227901124,0.32259622250630404,14.0,1.6520041414202018
-14.379124961557686,3.755007447432803,-0.025735642449362283,-0.6130245651761395,0.09470115878212457,0.8113999454743058,0.5550774088514128,0.06332363422093047,0.03337204417692602,0.32580156998995785,0.26373970665551494,0.00927314179552889,14.0,1.7369774620788885
-14.690104910866093,3.7576002353817484,0.3254479636837613,-0.18362231322391848,0.2157614403933924,0.687193840197007,0.3810748207996299,-0.11899452878424349,-0.1794093934900481,0.0692176900346718,0.18641697948213293,0.08010814167827132,22.0,1.7334636975501767
-14.476934427062021,3.2779810856052136,0.17623702801071026,-0.12570448832536943,0.18122855676402264,0.6731046867955464,0.4748300456378496,0.1691507549659203,0.07862863166905024,0.233415989789111,0.2561524030675664,0.11358050737478242,10.0,1.679361409373696
-14.436426828014424,3.5418557530628103,0.35325339890298135,-0.08045759386790403,0.13638593198754556,0.44547091417830287,0.1954027372796265,-0.06777668559812654,0.059718552412950474,0.31118234865621597,0.22066905412329924,-0.03678532974053657,16.0,1.6124117243562432
-14.462955664246438,3.7549996004660726,0.2305168732033634,-0.3270219205550089,0.1918737643244013,0.7560511989769032,0.5066521309330708,0.005125402628149672,-0.04111077065158695,0.19998948667679406,0.15549921918695375,-0.02082324690359371,4.0,1.7137261561699435
-14.388359741110637,3.5041769202817585,0.04812045670162572,-0.30760106952932875,0.28601779415822515,0.7622375573515716,0.3788461153055369,0.024365649918246406,0.242196187195514,0.6006048351698414,0.44396348660510976,-0.009266616973832013,8.0,1.6569692456677236
-14.31761667069054,3.779827790364431,0.2690896995612437,-0.2969203867429391,0.09911427067948371,0.6596798936379846,0.4987295446924355,0.15235984337374975,0.1189215914369939,0.2378597863018114,0.15243258036341967,0.0013685164392441308,16.0,1.5812624389785417
-14.455634271755052,3.6429236605445117,0.0970136341820611,-0.29021682756886713,0.27919963908562084,0.7986468966948305,0.3769909182981592,-0.0933449803296276,-0.06949314398061415,0.2430352475214655,0.23047862688453907,0.1328920366828224,14.0,1.6426936529745537
-14.465252711589677,3.5714699712211853,0.33146441768552243,-0.12393849431379161,0.10162750242913682,0.4959419417062609,0.3452242477722379,0.11797551461495479,0.10579601033765526,0.2566146174743284,0.12247752371387603,-0.008981634164577632,14.0,1.6130231588724908
-14.669714063339457,3.571575465203174,0.03007205163786887,-0.42421953141861996,0.13717394310339304,0.7185217545009555,0.4460195895905664,0.08802697240091646,0.15632056187975757,0.457972628341022,0.44700735890342513,0.1513269578899658,6.0,1.6870723510049772
-14.583130906550739,3.3770100580468063,0.01596084817043502,-0.17060681829098118,0.3899058304721036,0.7368482336358319,0.1978794958969343,-0.16915166955487093,0.1267259656051783,0.5223361006202892,0.4398046426270934,0.2493839279377742,14.0,1.7489751570373107
-14.618174895991572,3.4546406629640174,0.10121821120070673,-0.2546560004074504,0.25041167753021526,0.8044465560823719,0.5671704244768313,0.20580828831208275,0.1964921030955557,0.36882558446503455,0.27465253331668577,0.06046029352287208,16.0,1.7370677934273453
-14.751119504571632,3.632119555738651,0.1446956279023412,-0.3401106784938782,0.2492896579758549,1.0005794868346494,0.6963352126142226,0.051688462761388526,-0.1728102458023556,0.15724928992912346,0.3773854359371843,0.19954399748138185,14.0,1.6267223513117894
-14.710987705531181,3.3712828192723947,0.1889761592168554,-0.17628569598027838,0.21108101562367176,0.6633486822163024,0.5221158330050657,0.2515948989263983,0.2251425066953504,0.32010274293818397,0.17219333531610925,-0.0368589439530676,12.0,1.7063389700602614
-14.569630961497548,3.7143656867627,0.2681353518849142,-0.4035936551903234,-0.05447056106976518,0.6988242761292176,0.7369598660157533,0.2663118860221493,-0.16824256268013107,-0.14455042263793855,0.0831262593966269,0.21734434772849998,14.0,1.73566388787047
-14.421332869671206,3.837865169103038,0.19212581133521314,-0.36059400661518587,0.13198365898890752,0.7019642617843105,0.4192274520366768,0.03141961889032549,0.1103490983406841,0.40901697399493825,0.36386014469439737,0.027043792114973965,22.0,1.7111296955655477
-14.575222196784331,3.6023414649215164,0.22830242096536177,-0.2287640657852738,0.21858430889327668,0.7519093697636958,0.5186718459457581,0.057523283769609884,-0.046386363781469576,0.16521586740721741,0.236093335083645,0.08024522969297179,16.0,1.692499520695372
-14.889954634683134,3.092124890140404,0.3977190764648655,0.13996558236651718,0.1853891478170489,0.4650295060313093,0.45121538661264365,0.33936003467600645,0.2880137015474378,0.37473599252204903,0.4186962081292811,0.3551296735541225,6.0,1.5223025485766633
-14.7586023106477,3.3097628012104523,0.6365371881158925,0.39774555530579536,0.3566344795687796,0.49334841201461177,0.3163041087633829,0.1557837225576253,0.1700597357114339,0.25300032549981544,0.21421962991453064,0.09978716704552226,6.0,1.639420197333971
-14.873968965229782,3.1739265172368083,0.6144849184521732,0.311542818036464,0.2832324484366753,0.47730961239378283,0.5003135576642519,0.43870223528901353,0.30046292806207914,0.1751943560601537,0.06982629342100753,0.07735393328421272,6.0,1.6702386903456297
-14.852034509839545,3.4630890842895754,0.3464664882412355,0.00014584599049221117,0.3389242964366245,0.7518319409005727,0.5507907835354349,0.1547850432366269,0.0364823311810004,0.1889573927877467,0.220019533016167,0.07479423093792825,10.0,1.6659200966365466
-15.31566560179571,3.438002634063782,0.3671424687475481,0.11082857160006603,0.42248943949894824,0.7485445596433493,0.511034082437051,0.3062263748008508,0.3994733864597928,0.5416833734900461,0.2931873783567336,-0.032595064629711124,12.0,1.5780889460174012
-15.106494958875391,3.308745884233531,0.45228614433510705,0.17680765427358913,0.3643220162618114,0.6543547842265314,0.5225654058449172,0.2859169635122326,0.25835093767530093,0.334403696656484,0.2425336782497717,0.045908794426183265,6.0,1.5375198101564522
-14.89781854105257,3.477513876382912,0.5375647342463569,0.10821105715404407,0.20244089668067644,0.5388304274640325,0.5960474434469472,0.5025738983741238,0.4327801953439124,0.33087379636835634,0.06051177921713528,-0.17900566599776915,6.0,1.6807296435438124
-14.814716653694118,3.3900122276454336,0.4272641241353232,0.10595991358418902,0.3380655160678303,0.7338614010912723,0.5954919064623071,0.35741588969387617,0.274149727313674,0.32770911243831113,0.12987749200721221,-0.154289780004398,10.0,1.648918935637064
-15.008045140318858,3.308722520852421,0.404595612183515,0.05648460816263882,0.3886495106184372,0.7737506803475647,0.6163802135596732,0.20292923152746278,0.08852246530601954,0.2501688493865339,0.27107241207548444,0.08108624733705617,8.0,1.6391247140435299
-14.968805363522359,3.385802348734938,0.4240863176471412,0.021231112187636167,0.2642414002009574,0.7319261130499448,0.6911076390595514,0.3466457860664105,0.1658811574064592,0.17047997903460063,0.19615842839729664,0.09443308823635282,10.0,1.5854987044519366
-14.89285208528781,3.293370882782779,0.27714144552532194,0.027656583566837936,0.43635884143123793,0.8020679146234377,0.4821764448848778,0.06597525772809687,0.13125257085501285,0.4418964332789387,0.5222736006193687,0.18783717506196107,8.0,1.6776110522874905
-15.15403077630569,3.2043168578022927,0.5278094287468955,0.21904759360763792,0.3291784787098271,0.5957956952613437,0.5080481820718927,0.35350988397386435,0.28429123760327835,0.31115774273964864,0.2538999903468768,0.12420643124207084,8.0,1.655687973709452
-15.038404755002572,3.2389917140281126,0.39426835070481037,0.01392774854654822,0.23652160116993104,0.7331387276554526,0.7203740506679801,0.40823421786195363,0.07296172561321221,0.14741443079432276,0.25047999947762367,0.2926056930914576,6.0,1.53314217234286
-15.078682589121875,3.363930921471951,0.508238732322482,0.19480690135418174,0.23921744706057924,0.5536575534308553,0.5041177792508937,0.3419775118190203,0.25131074310188317,0.31610720085998045,0.26726113801383533,0.15590208794799532,8.0,1.5927320683887034
-15.053839799128035,3.370785958466069,0.49178295662567917,0.18090063969354958,0.3313756373429087,0.6532314123421118,0.5523144607960563,0.301974672877931,0.1622038603129604,0.20361293257010782,0.16322419441540797,0.07865685097339195,8.0,1.6877021789953586
-14.864528486258266,3.283234984092683,0.26479040693639583,-0.02989623269464403,0.35372661666255334,0.8752627777492961,0.7630975871216363,0.3459174384221747,0.08983008141044627,0.21955379780403556,0.31291288519612964,0.20641200941882468,4.0,1.621556132959996
-14.999756508039114,3.337180764723895,0.4121680422605853,0.12494787021503104,0.3557537830038834,0.7157330354086406,0.5350566071481606,0.21142109703704787,0.12721447836309696,0.3172528293664266,0.3236320786285122,0.12730365973000346,10.0,1.622255043878139
-14.940263095211636,3.2831028117619123,0.26908492144499074,-0.0001002691439971233,0.390068439811077,0.7741561798732574,0.6015955377210072,0.274528888131361,0.20946698172769684,0.3272016525423306,0.28262292615096096,0.12490618882707863,8.0,1.653950603990524
-14.980049742877767,3.3160009430187922,0.646585329185865,0.32531499070939496,0.25852533799592725,0.4370256998620753,0.46124674758897843,0.49360891920364447,0.4574708304134054,0.2965970318804746,0.012402592356862578,-0.13821454616046958,6.0,1.600566062667093
-14.853904341789354,3.15726473351143,0.4084654140529421,0.1534451147166372,0.29604641993105857,0.5605411210127925,0.41245363055813083,0.2040932785514844,0.23070101071951296,0.47343517251111333,0.5206129757824458,0.3146792309914966,8.0,1.7345843173115951
-14.93417256372553,3.146509887388776,0.47178614217103265,0.24759048688741508,0.32642816912781525,0.5948328354977153,0.4967261320553419,0.31076407582019805,0.25671913527380136,0.31433392984900427,0.2900963052975184,0.111878053197201,10.0,1.6582243767329106
-14.821237972689218,3.378906443989014,0.5170543433051453,0.13746183814130136,0.20272569415530328,0.528130504484129,0.48286466413235707,0.2954934190524675,0.2202087428153786,0.37772642867287287,0.36530506139104013,0.13585005763131802,8.0,1.7342500139435373
-14.878524891773678,3.172494976901475,0.38563451290394635,0.21271552041833808,0.38653933727335554,0.6312617029842369,0.45608995988512613,0.2392125124366703,0.22403341223593115,0.3694053091791701,0.32187814014313276,0.2036152931922479,8.0,1.6765675221717122
-14.510507394641849,3.5435256129942596,0.06433558835923464,-0.43194649646023076,0.052384755564768216,0.6056978591175733,0.4147716619781333,0.0581528998640744,0.08664910310856977,0.34414388574433225,0.3641645928715704,0.2345671837695199,16.0,1.7226515676307268
-14.404829611808038,3.498531355692749,0.1574467924886611,-0.31637417793570555,0.012711011501193154,0.6168261136309039,0.5408399474491422,0.18990519843658937,0.01782768514176429,0.2264051319579891,0.3669783948355021,0.2515567252911542,16.0,1.6613595875256912
-14.56589975062572,3.4136789935771095,-0.11080064850786467,-0.3240658485988108,0.45684436661681105,0.9230467153764156,0.2975397547925333,-0.25091047356998186,-0.03313723312373293,0.5511078195169288,0.5403818545633743,0.16369570758118174,18.0,1.7108933449291943
-14.242613482534459,3.7035236533072284,-0.15030849019728776,-0.6632704696004857,0.11465016747375834,0.7113502063348083,0.29146952724732,-0.1999022924161521,-0.023811470858547665,0.3889519967671793,0.3569307016058395,0.11696368743000903,20.0,1.6869208407776701
-14.196859954178487,3.6810800972149313,-0.1735962722839548,-0.7726817677460747,-0.08426224251718115,0.7468033428095227,0.6548771477425859,0.3093250961594872,0.24873042332105655,0.35497565877244497,0.18265927982443314,-0.03576983651591924,24.0,1.7912401739235384
-14.363299634889383,3.518601484838771,0.12254559167839743,-0.41962460194124884,-0.02902602138164638,0.5887486772826231,0.5791067323129322,0.30754292645349857,0.17394041600067,0.12733917799621863,0.022446569587681556,0.03620151828105552,18.0,1.609585512968923
-14.410820377736982,3.684648834479936,0.0007477879066861573,-0.5762637431479147,-0.01672737146499266,0.5698781733093298,0.39059075747527083,0.08877357863231984,0.20298282691882286,0.4385254703953052,0.3802424626215296,0.14006130366099523,18.0,1.7279017445465685
-14.559632959068283,3.512935751991286,-0.09808864562712988,-0.5845365139867302,0.11431810139948631,0.9943116738929001,0.8161178860925439,0.3150866429402066,0.08044546325669252,0.26928179413087794,0.26674588817062794,0.06053640947492103,24.0,1.7006823791604433
-14.226316806003897,3.7679780661068563,-0.02474868820432306,-0.5629682442015713,0.09963935015232551,0.7811645185915277,0.5114499294603267,0.10406643731826246,0.16107232012602307,0.39976924135050745,0.16465907259465618,-0.21624781489288258,18.0,1.7613801614158664
-14.179840374709938,3.8311546175098474,0.0017041502276195636,-0.627887207117674,0.08084678995729697,0.8920247193690973,0.6985493300406214,0.08707489670448654,-0.09558453684209808,0.13337754205948743,0.24689116035232367,0.11181115273784456,16.0,1.7520180356661808
-13.993156509253632,3.569674958746935,-0.16720667071775172,-0.6111911340563083,0.15339161236057766,0.8022522416266779,0.3520621954922746,-0.1820719790103239,-0.09775526420229247,0.4119611745925657,0.46226223754181367,0.2575963644783583,22.0,1.7094864399734786
-14.376928210575016,3.654203308182181,-0.11044104202536978,-0.5560930326532164,0.2955334672632436,1.0282571084031809,0.5856833934483993,-0.14279484117960944,-0.2656867591686757,0.10523045321111305,0.21750577692935386,0.06467872018269323,22.0,1.669193837501746
-14.294945834270438,3.6710405077493387,0.35216786724428584,-0.25330770514130146,-0.06713521402065449,0.41997592443874365,0.40232169488557057,0.08151661591285023,-0.13720406775583274,-0.09818071628825095,0.02795312410056863,0.13418317497795468,22.0,1.6428196700327076
-14.752937604885163,3.5275600220347574,-0.06271277064024224,-0.48166447997990974,0.20453709658048663,0.7252905899569404,0.3115794334000437,-0.08918548781141765,0.05028408570402744,0.3446155087329176,0.23957957403508776,0.10367113561841965,16.0,1.7507090117491502
-14.73663925394192,3.8533146558485414,0.13774457793393602,-0.33269730403676456,0.31085348930807416,0.8438129689681578,0.36024334336900043,-0.1765024009687998,-0.10038176101651616,0.27706743262535094,0.25143643902390855,-0.022521902221821183,22.0,1.6982705742673354
-14.604382387789999,3.5574846287908564,-0.10796624378152574,-0.4584923214686667,0.34133747874169196,0.8823576937356516,0.3658024337434571,-0.09823081112092828,0.09814911694427247,0.42726401893454413,0.22376474601110075,-0.0844236473867424,24.0,1.6340901686554714
-14.248127821720953,3.951716526359417,-0.039917935183043415,-0.7387604352142394,-0.10525878809682167,0.72787509877366,0.6527714867377695,0.22529780411822814,0.08864442396494746,0.14288320073419147,0.1649619972467956,0.19471449401611035,20.0,1.6905596644128749
-14.35357610355994,3.4391608544930303,-0.23910420233984636,-0.5348261418736875,0.24219979184256613,0.8630167452872801,0.43337813527521585,-0.050746281430997624,0.06730532505381881,0.3750461439088292,0.25772301001520037,-0.03006121714976557,24.0,1.7027141179393745
-14.385092287965021,3.7164993446388914,-0.022873388698592713,-0.5347914295393001,0.025386668407635322,0.6053066985341018,0.2757863345977858,-0.10658744593468947,0.06358132576632299,0.4374964579530105,0.4390252940737659,0.20548471788780548,26.0,1.6788349217490384
-14.460838982527925,4.014879051349507,-0.07646684708884421,-0.7255263291250325,-0.005675698290689566,0.7538318343225276,0.40170171400562704,0.04264066210611612,0.15821375219134481,0.3589734327780223,0.1425800556614682,-0.08410243446238408,16.0,1.761451919143955
-14.363060704651494,3.667104753641252,0.034040119791855665,-0.43901392389876853,0.13667771971153758,0.7847210457127087,0.5111749530312468,0.03318571264926305,-8.87954316480255e-05,0.31399856914402313,0.3436592984963135,0.15968442889103968,24.0,1.703808053101766
-14.30655251326554,3.369991665227226,-0.24488922931111767,-0.5051562167563548,0.31243644690783684,0.9610676994080702,0.5353468382766378,-0.09526983899037872,-0.14385584468003249,0.18078987503441163,0.2669348569080606,0.2130082548397586,14.0,1.6847534302691627
-14.161465004408221,3.6007923926586836,0.25022577698947585,-0.12085176574971673,0.3173442120881882,0.672436818877912,0.2601087282646346,-0.19321876119036918,-0.02465186726846652,0.39654155860629897,0.41994545209010975,0.09744115658159468,8.0,1.657508969102379
-13.921209147616329,3.54896147462305,0.20327746475183,-0.1036972446443929,0.3628279274571823,0.7300489455949037,0.2719546019375193,-0.17667434928384484,-0.11328234480379845,0.2934011947669176,0.353444010474064,0.1827563586955742,14.0,1.7212651545152529
-14.02527912588878,3.671495550284094,0.08080828417265976,-0.35283397273381306,0.19973433222183096,0.8381099299483779,0.6137197165536167,0.16366993933118554,0.09062753423550259,0.24795905027223034,0.19359944129699277,-0.05811682689636272,10.0,1.6768865925517358
-13.946655086574413,3.625837039240435,0.17021687195772173,-0.2828390541731105,0.16637993401963064,0.7909490896795022,0.6185884028115051,0.1391369891259706,-0.01855591103730376,0.15741794985022312,0.24894377666547934,0.1396115675677645,10.0,1.6719347841109633
-14.07313491822887,3.660353167978581,0.09204667626714397,-0.3405825282257179,0.24094666764189454,0.8638901402354418,0.5726304493392314,0.08989494511732776,0.018530655902973776,0.26093937063501055,0.3231915023881936,0.21372713191997805,10.0,1.7627858117204962
-14.497786132013596,3.3471602456611684,0.24713516738468655,0.017579919070530085,0.3801694331772879,0.6788398795056798,0.3263085454869722,0.011277041129082538,0.13933155136283318,0.3569122975380291,0.20778679411728398,-0.019987388320028564,6.0,1.7696623468060062
-14.051360675358746,3.6307639941138925,0.06894476303656621,-0.36044373739755464,0.23524864638508675,0.8665512629375305,0.5512889830871968,0.035579377461142356,0.03487625141952227,0.40109783451194386,0.3969673608852152,0.05485280051830512,12.0,1.7376402356786609
-14.16983476942687,3.5495490832163967,0.1478230173281163,-0.24283154468779652,0.24573922028915338,0.7126341349342388,0.3893783960989923,-0.004888477242324623,0.13740920800541423,0.554845511665072,0.5370357908954264,0.17435250825603998,14.0,1.6156547152717113
-14.344708297317798,3.4004316983624343,0.23812315368184384,-0.019136400360343295,0.4069902170545127,0.8799513654389253,0.6184295992519704,0.14303041654496718,-0.0936410342490035,0.02449244787364787,0.14242136668689892,0.1530282001908009,12.0,1.6901087327003008
-14.486857872303988,3.448610083894555,0.3149542120147558,0.045569329947701416,0.46489149230127097,0.7883006502664095,0.43607425336961547,0.04839457241143397,0.05332442149085069,0.24009073817410545,0.12432102603250364,-0.08272137956772305,8.0,1.7242815569275836
-14.23592027506106,3.3960081537959317,0.2351709318026345,-0.0034403894615367657,0.427830499444113,0.7266643261290646,0.3980327307928757,0.1635881028027658,0.37596571251558175,0.5458126655912263,0.1832715342843615,-0.25300655178184284,22.0,1.5986948758438566
-13.976153605054234,3.4580616862180635,0.01903861536191777,-0.20937692318923173,0.46359676677342665,1.0068621419536006,0.5176921679776576,-0.07985201285790904,-0.03045017322204377,0.39985916779335196,0.45575498425466565,0.11457558324852869,8.0,1.6955665931823947
-14.436099436421104,3.2847649356860895,0.37140079910061313,0.17687017472940322,0.3764607128596864,0.5673112349262279,0.3304128577164223,0.21446474811833016,0.3198702763034144,0.3497703852884176,0.052991298416364414,-0.12668268878818537,10.0,1.6647301512717483
-14.500601194227611,3.4759299439003115,0.3444978153735078,0.00514514936492038,0.3399160549168389,0.6998942772860752,0.3825544191574865,0.116770562103866,0.23254734828458823,0.4909194261274197,0.33849115905727933,-0.029759342429067158,10.0,1.594231680962105
-14.486992046312494,3.3442847807325724,0.1835880266789106,-0.1773708225302044,0.22034274897368153,0.7553839214201064,0.6378771212548668,0.3505497189097242,0.2401624878426743,0.2601488368853001,0.04855868502724171,-0.1350793652036694,6.0,1.7542724443096926
-13.918532386625005,3.5239670027117764,0.2396847908099083,-0.1806935105081579,0.24799670885056557,0.8881765454833395,0.7081453706353917,0.12953609020204632,-0.1401358895976996,0.1336311624381531,0.33468516311870866,0.13642454807094925,14.0,1.7119426219387686
-13.937472480524296,3.5518276821266217,-0.22525645270531292,-0.6252062905269161,0.2030401491627532,0.9689351052291573,0.6398072213627584,0.09598536519811968,0.10976955500813285,0.48113838597223957,0.49524077459559934,0.23719000607014112,10.0,1.7022593529155572
-14.460608168266248,3.308412686652762,0.241242896745525,-0.04121325327462749,0.3546870496804892,0.7762856524013135,0.4927942063392974,0.09518305167608412,0.10678314751823467,0.42025919279493984,0.428996325471834,0.10473311425711973,6.0,1.7131827755826656
-14.293177756773876,3.3370852246069336,0.055120693935029205,-0.20540910847796523,0.2680562415136987,0.8513494945191902,0.6049967276843191,0.15672860054217636,0.09915265232589804,0.3658583957350966,0.4387184063429813,0.22603794050717538,10.0,1.6501664516291767
-14.327252669924395,3.4901824331801166,0.26168374143874207,-0.06726384177844374,0.47381618980875156,0.9833183563210299,0.6434056354114633,0.01049145766173221,-0.1469233124694877,0.08831679815152167,0.22522453490255753,0.09690762619142682,14.0,1.6750093741682976
-14.354620839271343,3.3932118814241683,0.2211033416212632,-0.048121649701210356,0.389454892202573,0.862296824853792,0.5514275330021415,0.0776495346992934,0.0052361734976966515,0.34056607075970763,0.4790671638660924,0.2785172039838539,10.0,1.6333984880628736
-14.577728806619126,3.3103685390759496,0.13110389924208612,-0.2539042783868106,0.13003967171764266,0.6341901693087286,0.5229716297203149,0.24627574606759903,0.2302552527599145,0.3491327717767063,0.212542145331209,-0.03949382669262114,12.0,1.7206971239462654
-14.611665851078138,3.6333731977287327,0.29452445630857416,-0.17342281666929266,0.20554366549153694,0.7241025987808063,0.4678475541796202,0.17640408413449057,0.19600997323109692,0.4275037148155734,0.36232927764768763,0.0447491159393107,14.0,1.6696455569516755
-15.006449060268196,3.0936583167860094,0.5076241994565458,0.3054208879230109,0.35707099666102055,0.5707782177825275,0.44759203721976515,0.2550308842220188,0.19044104213998497,0.3177638246818935,0.3560783345309292,0.2554379541068821,8.0,1.6093463198690545
-14.896279603164766,3.1947765733722657,0.5600711225203359,0.2447043823613635,0.21590751499573402,0.49465042635590484,0.5153297994749786,0.38639855268027445,0.24655532873829095,0.24693289242804953,0.24802272749621784,0.18205213766618705,4.0,1.6319185750111944
-15.00961167781199,2.9571377467520192,0.4023127185167471,0.23332114158913464,0.2578165938391469,0.5160511123583069,0.4438329619753373,0.3485312497694789,0.31876850718930283,0.35310848928752425,0.30150722821896636,0.19457962505217447,4.0,1.7065501366095486
-14.944222079727034,3.2197012039477118,0.6346259214353603,0.38598984272442316,0.29926749272984254,0.48103932347274064,0.41764138758210645,0.28795460888908686,0.1531842072134102,0.1603311402363174,0.16559196633144807,0.1584171792437249,6.0,1.4916953324256084
-14.942595221624837,3.114141644070756,0.4909374167591627,0.24603622101796255,0.3300078125497189,0.6155133363202204,0.5766498802620257,0.3388105220028744,0.19023214934045263,0.1957286108589517,0.27829590886520805,0.21640988718112458,6.0,1.5720365915134167
-14.867417721972704,3.1653942835597197,0.5614770558853541,0.3133445767188664,0.27348631042549154,0.4689012252530192,0.43192598777520785,0.2974220228230607,0.2406345076289193,0.29723921841327405,0.32923142909527014,0.23423787549080308,8.0,1.5723305804083076
-14.955735733062314,3.1410404571734856,0.5839819214093455,0.2995394369322996,0.28115413863843464,0.48864235588807414,0.4963276227149363,0.3477187521029928,0.20850154536104215,0.1838206299860103,0.18715099958278364,0.1948909869358532,4.0,1.4197922084831782
-14.940318049007253,3.2642144489743155,0.6850425690821192,0.3245516018882442,0.20950780280375533,0.3684863030455944,0.37172473374406595,0.2893683361186313,0.2072745375080391,0.2545196780121276,0.24511749530072166,0.192332774675179,8.0,1.46448146420213
-14.922521456250658,3.14489875582019,0.5086018933227219,0.23239075123009562,0.24626974122338907,0.49440444517635507,0.4862429445776356,0.33248901212331405,0.2340738139165384,0.2696778719779865,0.3418665967310185,0.2949823361402816,6.0,1.5606072957277763
-14.874587588943426,3.1808936164106596,0.45179997174972086,0.2014974899480779,0.25838909281643285,0.5848123591590033,0.5312461395501598,0.3285087764293821,0.17480959069060592,0.27294882973858486,0.3813472438921396,0.29429598605826385,4.0,1.6380483567214215
-14.993155839547523,3.1810375219529936,0.5791400051956974,0.34658943762313715,0.31444891314070134,0.5238040098534491,0.48534383217875854,0.38943310264040687,0.291736022952381,0.269032636266026,0.14779456921157738,0.03791165939213344,8.0,1.6207551532857734
-14.901835979800378,3.327221810619564,0.5747577653482752,0.18621573384892878,0.1866196243242806,0.5254691324939715,0.5784848658122627,0.38933569935593376,0.14548692283976505,0.17754949245352475,0.29086960047210914,0.3213680710990061,4.0,1.4979632858274559
-15.14102419645505,3.124468218260019,0.5641745788221854,0.287065166843457,0.25496612383910444,0.5396837003051712,0.5703935560679577,0.4275848125050714,0.24481341614098187,0.21777913997332127,0.23963521780723854,0.20258517530437176,8.0,1.5872158901074143
-14.959069949131006,3.120215790027881,0.5853354837496718,0.39199578731174123,0.3868749927984599,0.566620563250104,0.47388387976648616,0.35771403154145587,0.2888564020837233,0.2821737970837913,0.2007781845084004,0.07783005840102182,6.0,1.5294138586365784
-14.994306991191495,3.086556970960582,0.5367103657907418,0.27516479487852086,0.2572271184671869,0.555167197059403,0.5756098059417329,0.485826632105002,0.3175522564977947,0.25319689370688714,0.18772183634247538,0.14815496770962372,6.0,1.629467963197127
-14.832909938351818,3.27784328624725,0.5301324138380449,0.25557831957942617,0.3965332886384263,0.6398305522109345,0.48188371110010947,0.19256282992378537,0.06636232031279153,0.13266416872626682,0.16266432740241132,0.14170509792709063,4.0,1.5559729345218938
-15.004215626746896,3.0629440332632565,0.477088212179138,0.2897527301129983,0.4137272403529903,0.7010398540487291,0.5778574888481038,0.2942691951120678,0.13468241017250165,0.2028520178250893,0.2911913541547263,0.22901101100896853,4.0,1.551622216981614
-14.942015120812277,3.0612481283787734,0.5131878756532788,0.2802172427890855,0.27425801844521913,0.5329926541669634,0.5283607179093683,0.41332638572967073,0.281448785083479,0.2900316980882963,0.3015658790034256,0.23542110944789793,4.0,1.644686083330631
-14.873816900112672,3.2526130142620584,0.4267224091285452,0.05848556519150605,0.16552273429618775,0.6335067806317076,0.7091357819728763,0.41710685912709544,0.08228467062400581,0.04944424513112061,0.23103408223949598,0.34096583196813285,6.0,1.642662114327197
-14.905502409171664,3.386183252746043,0.6627500640293021,0.276768528291691,0.26614581198471393,0.51347046633352,0.4838699023313854,0.2777565729764921,0.11817248560129578,0.19541641032862875,0.2573311635135326,0.18127530358071614,6.0,1.5812098776196224
-15.10107536674237,3.099746420139293,0.6175370439743888,0.41581313237600576,0.37778021081047547,0.5342223428369551,0.48048176700843725,0.33579226349264524,0.24260260596809055,0.21532167511939965,0.18035614578050538,0.1775053586762289,6.0,1.4882706567904624
-14.881150354544653,3.243695676056889,0.48757159005025663,0.15428213954940573,0.18974326631505412,0.6131132653822787,0.6561909230740444,0.4407824812566824,0.13423338838226812,0.07155106633480657,0.16113420398121808,0.21879013739883485,6.0,1.6789794566932283
-14.778909399949614,3.3429648496791966,0.4998588104442632,0.14980618856892863,0.2591939598699857,0.5931329247998295,0.48876537667258657,0.16199132819969767,-0.030166075252589325,0.12237641722505935,0.24145818806289038,0.18524615943013267,4.0,1.5275518159331951
-15.086959485255214,3.0945909170785377,0.5755265337614418,0.2920747834314963,0.2008406988167713,0.4790744559761605,0.5534816496620449,0.46227083309135575,0.274439582247462,0.20246174739900885,0.187862496374912,0.18628202346703998,6.0,1.525917853205827
-14.727623461689229,3.2935956999590554,0.5786167869875811,0.23942053801333155,0.23350446953245269,0.5029212155154806,0.45676490022943367,0.25984513236186213,0.10914900404882927,0.1400536110209219,0.19302854818739776,0.20134286994377412,8.0,1.5955084806175477
-14.838891920505507,3.138914410737164,0.43737196752896235,0.2475446247068719,0.3552937839479743,0.5794345589820926,0.4396550878204035,0.3007607004028716,0.3462326526707186,0.43831440787624043,0.3133594875889044,0.028120453588364614,6.0,1.5246734208610297
-14.70795309883319,3.124629471249891,0.3978718338668563,0.17713236133694227,0.2924401163691999,0.670317585694295,0.6459299505362861,0.4435255505289935,0.2571210569283139,0.23782237960998276,0.22941151924075934,0.19999727508793408,4.0,1.6232187516357979
-14.598910574898769,3.0959587133967763,0.35682471662459075,0.1005588944524943,0.1854719493706207,0.5456300566373554,0.5163403412387939,0.3537765199266766,0.17402480123171477,0.23862165467760696,0.2801091309642487,0.26300674271782354,4.0,1.5755323126668725
-14.838748702942656,3.1028366475916287,0.4713682119268892,0.28693461142115734,0.34193380312062205,0.5838047805593551,0.4509972395874033,0.2541260339328115,0.18963522145869596,0.2718264452415227,0.28740639665262696,0.15565970155892644,6.0,1.6652580440762905
-14.79873594162083,3.206656616605093,0.5809472891452128,0.3442059301131334,0.34128463251783725,0.5767234601023171,0.5249576832574447,0.3528359531893203,0.16452226680942372,0.11131075412320882,0.049625344499547516,0.036877468997874335,4.0,1.4798202080577885
-15.019204125129102,3.1323143445860167,0.521310691601319,0.2684480537637752,0.312413193163912,0.5960593392463076,0.5183772545676495,0.29665908499533805,0.18809342720206806,0.250094344443738,0.3130336568762405,0.2207029525698036,8.0,1.6126590571922095
-14.611709129317791,3.1616409532756027,0.3997561845768003,0.23533108468943417,0.43903077888461783,0.6854255797562085,0.46269286950876054,0.23088194925549038,0.20374033725272345,0.3486126715650161,0.2572479487112237,0.04420698901993929,8.0,1.7133120934960786
-14.674053887905782,3.1449209205437234,0.276478210978773,-0.028618162012064966,0.19008717351389287,0.6766649496583926,0.6863786669382468,0.38271007664612144,0.14703058487770387,0.2033879301109874,0.35494881770346776,0.37245312069076303,6.0,1.6803294555152795
-14.78689714769469,3.310868373604576,0.47204915199479874,0.12029089676645308,0.19688814604128285,0.5473985589433981,0.48670808524490794,0.3766671888014857,0.3037697047299678,0.31696944735716637,0.19794847625627518,0.0042996694466912525,6.0,1.5738598534617996
-14.641844643681317,3.3432577640739334,0.48087666433731,0.19835440245273986,0.3021393155025061,0.5685643136242865,0.4018608242471456,0.19610062430654795,0.17811377374034576,0.2887159276778818,0.20592271417683422,0.0527000469507181,4.0,1.5918613734154248
-14.669819608264227,3.2457929950467577,0.4659069143341794,0.18684195495047912,0.31069892171231667,0.5746772738474606,0.3917782086909861,0.11842294288171454,0.059656248067617004,0.24299342776307672,0.31783169040048853,0.2102927054500217,6.0,1.4771251548638795
-14.631511885955076,3.1938948310043243,0.4092747628993042,0.16634822208861894,0.2847478203424947,0.535574654006599,0.44068870072475175,0.37290642597535845,0.34346624399614545,0.32024396299662594,0.09933941040683317,-0.0009203794177131616,6.0,1.7313800496247516
-14.8872342695655,3.1674892838624156,0.3196319678448146,0.094025334977765,0.2929602430868194,0.6599062462919507,0.53473472522168,0.31375589356001965,0.21843779839549848,0.3418026311304181,0.3355413505351298,0.2088006947363879,6.0,1.543802923582923
-14.766039068294496,3.17519763561889,0.4537787096059678,0.1584692255122802,0.2277841559522346,0.4783761972978646,0.489140879311904,0.3499555685156517,0.3164696694542448,0.3444011696901062,0.2904709689342784,0.12628650818698808,8.0,1.6504297600415943
-14.835202843902104,3.158977377838427,0.34779929978347635,0.11855993214147777,0.29714624431284664,0.5988166135562463,0.456743123612856,0.28677659089483354,0.2930305941728776,0.42443510925583405,0.29959776759579293,0.08154868933633184,6.0,1.646493440141363
-14.792420798007809,3.111988476648161,0.4120769508025628,0.18465767710549336,0.3290078836048127,0.6298180898926221,0.5472220411850137,0.29794627307226934,0.16530200087399366,0.2513205898936397,0.2916539642592786,0.15785470654794287,6.0,1.6817673267908766
-14.681440417721815,3.4275513684343357,0.2323656405328733,-0.1411245149618643,0.319477376127558,0.8188604302148637,0.6100942362667267,0.1892138588974364,0.09933383830010259,0.370485464427086,0.359533244528867,0.1268078294781857,10.0,1.662694165312066
-15.222761862747863,3.1497783554718124,0.31753792554951277,0.06387344069677006,0.3343309486811977,0.6881009871508299,0.5629468017605277,0.34608354093991356,0.26838324810135106,0.32832053959392443,0.24062664988202892,0.12261247245009255,4.0,1.5950505653058147
-14.847288030935127,3.4577738124733726,0.5400886452801187,0.014629038812623214,-0.03402930396027064,0.4615245351749641,0.6779179127510384,0.5923906872399767,0.31832602681073374,0.2079879541747192,0.19344493184643052,0.14965925832707794,4.0,1.5358320861370598
-14.841102300625392,3.102039565314388,0.32022333772348505,0.16031439664585878,0.3868489540766769,0.6417223282402065,0.4769541854770371,0.25183059165629784,0.3069092211327339,0.41164445090266755,0.27943084234987164,0.016544436705656845,8.0,1.5567488027347907
-14.857940746319027,3.5468366068680837,0.32711804649239484,-0.09395971863873935,0.15965855782444574,0.6384934740840067,0.4701276530245549,0.172284422127224,0.10326288767457753,0.4045046627396424,0.4777546750634192,0.1895381164131701,6.0,1.6539928622761837
-15.16171036421547,3.1849956364805614,0.2392936489990064,-0.05596936552029702,0.2679709400346998,0.7166524230793452,0.6170708688755768,0.3308780198328367,0.23809251318300476,0.3617952316319543,0.37173176342722986,0.1793718428070771,6.0,1.6481376078495442
-15.011856029378318,3.4490879983023497,0.6585489109427383,0.22965915340844573,0.16839198993281637,0.4842641150943159,0.4759616952985134,0.2788702072718915,0.12574547316823753,0.13377190680937456,0.2561567416755385,0.28633974767355996,6.0,1.4768903048854751
-14.867352857055558,3.32059493395875,0.5065122379345777,0.14472961354660902,0.22917885702688634,0.5852490558601497,0.6297867712059781,0.4487278691734294,0.2739197042659234,0.23124374980224027,0.19859231618826273,0.05733515986843403,6.0,1.7202262126825585
-15.56103617446651,3.4992487485377284,0.5160982040175746,-0.04864663531552113,0.17838894360387098,0.59591433238624,0.5983261426282374,0.23645719792913333,0.10174550197573835,0.2376144393772862,0.3503788501822735,0.21784713185966745,8.0,1.6170786768348313
-15.007395590222103,3.5556150289578605,0.5068871574134654,-0.14316897991417998,-0.06841250773704528,0.5532632687360035,0.7724055735241379,0.5246612597169558,0.09678495587535416,-0.1641438352795228,-0.08488794837858822,0.023701912016060214,8.0,1.637780466504189
-15.337122461816978,3.254235767466713,0.4624124067139524,0.13764667770080996,0.21353332737192843,0.43983796457622215,0.3381624503432872,0.24992539053670748,0.29513938526573896,0.3790162679849199,0.280909624754269,0.10484836484839141,6.0,1.6674152603632546
-14.964135121377213,3.412432811597033,0.5131666084745654,0.13802262054433942,0.3055331669283071,0.6237626187609815,0.48663051080413305,0.2220270436876628,0.09524055789070113,0.18946605125332372,0.21476723226722522,0.12675432969742031,10.0,1.5443442589351597
-15.236455311003965,3.3806608879535,0.46849982390626177,0.10802766197852662,0.22473231085533668,0.5289450148564369,0.44724009044724805,0.29901671148324566,0.34556530379087563,0.3941765595208084,0.265519108629008,0.004204794625654031,14.0,1.6309908857037705
-15.143057792579514,3.4220235809996256,0.45811077968956215,0.01447187410191978,0.09724540521477404,0.4719491451277148,0.41937212907572774,0.19096996903458902,0.10596235045541727,0.2637793720732971,0.28682654635399507,0.18902144154735812,10.0,1.5858868288113785
-14.963176756429894,3.3725933627339133,0.25662892396959097,-0.19453086034423345,0.08448380283830967,0.6550476547039834,0.6602351358775964,0.3851450186153419,0.1721049701657189,0.25719138798799873,0.24951378944925517,0.0914990526856369,16.0,1.6036942026438306
-15.241725871025311,3.3132868378435285,0.3892855471320137,-0.07518458893502865,0.13616680978498735,0.5520409309752556,0.6151262423147192,0.4235215695968687,0.25629212952371405,0.21726482898551683,0.15703704951319286,0.12719734427344098,12.0,1.6152862048258114
-15.100174852363901,3.3249109736579703,0.48110236401892903,0.11303477072040258,0.18473826747677013,0.48398149448307626,0.4364964555621142,0.23132972951301323,0.1760593340546649,0.2461156790835633,0.31721043722758846,0.25911242263717027,6.0,1.5495486803275647
-15.174594132309283,3.0986474365739496,0.20786788061212064,0.004728774906657643,0.3860268445812761,0.8288861782436786,0.6080154975897945,0.13024435192094175,-0.002867689010380623,0.3422136403832692,0.5881950994289238,0.44823592774475357,6.0,1.6941485115804449
-15.085452314872686,3.4017009252744677,0.5282573553017589,-0.00988612721270651,0.02836641219804667,0.42221060644104047,0.5653541310309399,0.38016760039069697,0.1388836686185576,0.10626339176851646,0.17602654714827035,0.23059208664225722,8.0,1.6811111962302416
-14.668806552333296,3.474376029566595,0.29728806405721364,-0.15971142028446902,0.1697767229975552,0.6659518750153424,0.5767669199372156,0.2827963780411733,0.2049650031830061,0.43099066981610257,0.42670084625969457,0.19250869063710213,6.0,1.5724125840699776
-14.899181803754436,3.4302700536579414,0.514264764921849,0.09599671984784355,0.16926419682984165,0.537943156488905,0.5202773456177573,0.3501961506104664,0.17505994769133643,0.22527032424207588,0.20668647687955555,0.12228768115870932,12.0,1.667662519295506
-14.802770076661922,3.5377504112385334,0.44766919101823294,-0.03890415516198223,0.14907005211323116,0.572767753907688,0.4470858808430832,0.14324799188045761,0.09425612281106527,0.3239728530774,0.38908405836825916,0.14838209440091496,8.0,1.611523511908195
-14.546978882065305,3.5598448902394093,0.4573173149979248,0.0014829351672493284,0.1734483109060531,0.43486853147947135,0.21008975444065575,0.012181083923174905,0.11769548855234241,0.36407583555583883,0.24716419628879488,0.048814306475182465,14.0,1.6768235920127408
-14.719090245538837,3.3428505870054757,0.33351580969782707,-0.12201721661382015,-0.0017070095728807214,0.5449655545812181,0.7225026871761515,0.5778923060034782,0.29159845000775725,0.12460165147644656,0.03808504669031317,0.10713982573485764,10.0,1.7106442287526689
-14.783884613451905,3.3042503022252054,0.3362412898839179,0.02099489632648449,0.25197126468813025,0.657958778421019,0.48057398800560064,0.14474481640038028,0.08333980576758246,0.3087246969761176,0.39835137632722734,0.22034922472146934,10.0,1.6477466357096637
-14.963349801822837,3.4724315010769295,0.35191956585284573,-0.006549109285717289,0.26384271774342966,0.6135477045184609,0.36653702367162344,0.06412635241725548,0.13216312551509468,0.38252919912848227,0.3633644515882739,0.1640471635826007,8.0,1.622070912840452
-15.005314935090285,3.3039193757754393,0.3013762810016294,-0.1262849166770864,0.1328088028765117,0.6580581961666347,0.6685735797391195,0.42396330072455024,0.3147612990516173,0.35717538582754316,0.3026320773205372,0.05577583771290565,8.0,1.6697660608780591
-14.934395622147347,3.4218668850064073,0.48498395948780815,0.0009897522969180006,0.06123500562127541,0.5205949033781776,0.6101587058625775,0.4213928291977394,0.2344610002049838,0.24010900558892206,0.2829775269839315,0.1806052582248307,10.0,1.6816259015521506
-14.85985282070526,3.3286603630831872,0.2100539108689774,-0.19340237692875484,0.21813535702363285,0.8609073671487811,0.7877990758767242,0.32651987911072733,0.05635377872102923,0.20342046073368747,0.34780017328292356,0.23371255484417536,8.0,1.651621377109944
-14.909207904304465,3.3431228429436395,0.33122682515901514,-0.08259452815581216,0.1728635325970349,0.6168106052172704,0.5432449019113388,0.27465022941093115,0.24859164168111175,0.41510377689536304,0.3902920894208488,0.09225950677689976,14.0,1.7460851837178613
-14.988452879424226,3.5645708625035977,0.5120491007223129,0.11194773602502006,0.37643214150214627,0.7678919806129463,0.5199870592189093,0.06089454865560466,-0.07563911846084002,0.20569585126357182,0.3517804630114101,0.2107578711793156,10.0,1.7176171976479302
-14.83861740897532,3.4717313264506315,0.3414901908079786,0.003933581862015471,0.41434124695375496,0.8385278386816035,0.5496190819480014,0.03577932003580997,-0.08774665649443487,0.1939527731997336,0.3127770328373289,0.16705650059487695,8.0,1.6771959342346854
-14.730487454588012,3.5168088128689883,0.2912852145411069,-0.06195766951443503,0.3307427728328848,0.7616832728057888,0.526984390448094,0.22579534520419842,0.25470929807525766,0.442762513365309,0.28576015979019836,-0.039414545152639015,8.0,1.649797661393455
-14.98921199936635,3.316995961485506,0.24934965559449404,-0.00684200310986454,0.4773740564813321,1.0473837454803228,0.7661284022953188,0.22530578245870775,-0.05300407167898859,0.16877427645845688,0.3465169017465323,0.2419677814358758,12.0,1.663822804452363
-14.808056617212515,3.430045644588846,0.4150349821423882,0.10872228863449977,0.3722281660677067,0.7522033272835095,0.47168944903029986,0.1125224715187569,0.06740620411681267,0.31699799945185136,0.3778618648868997,0.13574112844027914,8.0,1.616451129437445
-14.943636319440172,3.3644818403922887,0.29151634022916895,0.06790671860806052,0.4941000709741204,0.9018307892946535,0.560334740791746,0.1904110844769336,0.1606682750429207,0.37233568466169703,0.3573230260813227,0.16104096471173726,6.0,1.6735961025477684
-14.96564768080704,3.288186796014192,0.1872925802171131,-0.095796033431637,0.3711438220602552,0.879636805090964,0.616498092882376,0.2407768253263055,0.1596661472056441,0.4745935205724559,0.5203010509694596,0.2561936077000987,10.0,1.6940869805727259
-14.80232992942711,3.654390552463191,0.5342918809157466,0.08866467612679252,0.33819551097077505,0.7203100531027828,0.5615559385879214,0.289553290154308,0.21897493942210644,0.25979364752072887,0.11273747998756223,-0.13246765290193843,10.0,1.6853362027801717
-14.849443500306464,3.4639756615534854,0.40885229018081076,0.0337548479001509,0.30927334430415193,0.7618607711436387,0.6276084246768578,0.412820341136791,0.3162635693793939,0.3000397605472982,0.10816763842426637,-0.13457001366919194,6.0,1.633819293790131
-15.005860491293335,3.3353869471165023,0.4936916029335686,0.1228110414975661,0.12682302791016278,0.4712354279331399,0.5479913067952507,0.49564362365142667,0.3524846342313484,0.2869029859475202,0.2041954153721175,0.1708275119228603,10.0,1.5966221172368935
-14.571170862199818,3.5028343811964313,0.43339104438300036,-0.012357054063110932,0.18696011800561418,0.7446996557815668,0.7942255217299214,0.41854944082148615,0.05717150602505127,0.040395561041223535,0.15808546745749,0.22579467661996805,6.0,1.644915223707766
-14.560627095949384,3.4486824422053135,0.585735314013734,0.2519346715207307,0.29864470177796304,0.547690004752612,0.4849654663283448,0.3354721072562912,0.3076550365094077,0.2882493626793192,0.15398799357599602,-0.03525805686900725,10.0,1.6372880280433129
-14.859331306655621,3.311454933997328,0.3254595710707176,0.11619251771351764,0.40912870326373285,0.6712785759357929,0.46022378630396843,0.20890441344287872,0.3156412200895199,0.45398755578915645,0.304026087861568,-0.0024718475742077257,8.0,1.7053459577839045
-14.828352356848564,3.4834285698010756,0.2941548679208262,-0.054555098127883485,0.3307052761621174,0.7846086091949613,0.5248179188295536,0.09643740400926339,0.061512056061916245,0.3775702392879793,0.43632151975960576,0.18539773710848156,6.0,1.6099351311955556
-14.686142249558731,3.426560459747079,0.3685700577336961,0.03829918303494585,0.2468638189670087,0.6563611284502351,0.5873883887665257,0.4210120071313328,0.2799004561825443,0.21847335992708428,0.08465527890374486,0.055766533282848044,6.0,1.6401046756955735
-14.57176421145399,3.37395338462235,0.3941564326775602,0.09027882491118291,0.30879873820624876,0.7145726222184263,0.5689430945723186,0.21391349673242488,0.06835778903146845,0.2679881400918491,0.391028769404859,0.282971364338746,8.0,1.6597375847564124
-14.635719285419661,3.280221287103924,0.5713968543282586,0.2921112532219263,0.2821890840423632,0.5574282444955743,0.555103669937839,0.3576045173320046,0.18726809384585824,0.14870625079700722,0.12275568860053267,0.11301284154251477,8.0,1.6489023764082713
-14.790823911204264,3.400565902596103,0.26657918495345617,-0.07003163051354447,0.2755302704745088,0.770083734238044,0.6430847550865317,0.32978328263089357,0.17128916093469992,0.256837750313324,0.23822238065564524,0.19058699383827726,6.0,1.7738254382173044
-14.544161864474335,3.4122363914246785,0.40323121732345457,0.049691766111357644,0.24734514738970698,0.6774072615742694,0.6244853153934806,0.40931911164254786,0.2704802450054133,0.29503839074331206,0.2364197729492501,0.10108839664301388,12.0,1.59723579889982
-14.389462642052017,3.2855385980874408,0.20023701790796072,-7.14467134261508e-05,0.4023678270234453,0.8202463946398211,0.5193019235311801,0.16610154534889576,0.17534564576240655,0.35030071373706195,0.32015534051359784,0.12160777798899677,8.0,1.7750385006170515
-14.781657086484845,3.2555033328124985,0.19818939168984534,0.03183582092049227,0.48110440074258587,0.9088651385428568,0.5661639957070653,0.09666978899597585,0.08464652799264116,0.40473956629190305,0.44080510504237574,0.10207893586266503,6.0,1.6379151428806786
-14.743246772813578,3.5059847323978763,0.44539032439617143,0.11469560647963825,0.43578755036809225,0.8731518389215487,0.571749606997604,0.10285993013148526,-0.05795503159883562,0.18209200052723865,0.19269193208630228,-0.025064334187437413,8.0,1.717358492861193
-14.441665158286323,3.5413733015867077,-0.005301364430194494,-0.24107043182707158,0.5282297781673455,1.0304777427209941,0.45477399730451606,-0.14889767516102026,-0.07954228985086932,0.33610185339437326,0.4096872432486255,0.25103868922963046,18.0,1.6730968938727206
-14.608074110653886,3.5697724904904815,0.24341329052870195,-0.2123426939490375,0.2729075471451311,0.9339853651514907,0.7651255284616738,0.3136643691336466,0.08196661711598899,0.22083417593134097,0.24081994968660086,0.08500561173908391,14.0,1.7014210472016027
-14.220748755906799,3.6959447815018316,0.2655813415562285,-0.07059051333918773,0.4601852849028609,0.903288482373718,0.4139515884189815,-0.14352166827697432,-0.0834154748584122,0.26406014679915957,0.2765713414027826,0.06685545476317986,12.0,1.7375293014456779
-14.720736314155083,3.752744634428443,0.6737002507480747,0.14617196461186294,0.20790586684375828,0.5995044495473373,0.5887499966584862,0.33078540698407155,0.07591904174921638,0.04334427575533174,0.024341619468952504,0.03482936124779187,10.0,1.5384644848807052
-14.33095228518202,3.712181175954598,-0.03871432020945807,-0.4017812472526142,0.4511930227255646,1.253223589371709,0.8296618196980212,-0.050559319850544945,-0.36174761092375257,-0.02173551888519861,0.22565602468733253,0.16701012499841628,10.0,1.6770707443794435
-14.251412988571856,3.9156399486599405,0.1334737648934795,-0.26299888247320646,0.48871327467076087,1.023154758050079,0.46366228210358196,-0.1277830922521659,0.017653567609308925,0.44729344379947267,0.30042127144285163,-0.1636346138554524,14.0,1.7564210344503302
-14.266581900993113,3.8221665049720626,0.2486154478760432,-0.13406488404828643,0.45577201201797135,0.9499732638687062,0.56740168847446,0.09488757323892097,0.11616673920248743,0.3020080697154154,0.08644601966699453,-0.23163107871293723,14.0,1.7600425565254232
-14.289118565132632,3.668838450954409,0.15730601671319844,-0.2622223967813583,0.29489335143050105,0.8618581125000442,0.5576746518898661,0.11959873552925074,0.15132393732813348,0.38087714958957863,0.31184168559549924,-0.015821786814422485,8.0,1.5927673401492772
-14.222428548844388,3.728475879850868,-0.025922800703826212,-0.4092092995855113,0.36309029838954915,1.009790754005061,0.5046491042497954,-0.12029542690034745,-0.017385860883984597,0.4928434594903365,0.5823198037392212,0.31292291395564187,14.0,1.6244215041739065
-14.349392764303387,3.8113771668987253,0.3410699771664676,-0.03071542596570349,0.43268997021659483,0.8693443469770706,0.429999072291811,-0.08680210152318586,-0.14885399020019896,0.0851090001476886,0.13695227768579396,0.06713777446555202,10.0,1.7082687227079072
-14.429776793526448,3.8118312599313158,0.33385167505545055,-0.19348229782717,0.10716595954955171,0.5458788318754244,0.4475913586233158,0.3491587312791804,0.49890998129594244,0.5734093584710359,0.2475200601493307,-0.19756657127170552,16.0,1.6530712940251897
-13.962458298672887,3.9410293837239214,-0.06380097347009005,-0.7902653116960343,-0.09061841816716919,0.7959558417433735,0.7031302813356883,0.28265372320870585,0.2756591044497091,0.535671671833811,0.4075326427952616,0.024921514141519028,8.0,1.7632808247154927
-14.124023484501777,3.6626986085011,0.0705736744486959,-0.28713003166259565,0.47181012533763333,1.0459657395269135,0.6241661874823379,-0.030353152241138527,-0.024276786591386417,0.3632742205166603,0.36044644112146657,-0.006157343202764745,14.0,1.7277044603516531
-14.422951751045513,3.7779209051299896,0.22729801437198707,-0.29920788291012157,0.338788112771624,0.9067422923328855,0.6680339929806622,0.23000173673114405,0.24659127866739156,0.35442095886226016,0.15727610859919913,-0.07366314247084699,30.0,1.7355339445003908
-13.848935108765616,3.7132749090147197,-0.05391780162564738,-0.44381613489673316,0.36012987121039997,1.0748458963407126,0.6859147304560875,0.10575383972144894,-0.004765379761318559,0.23168059222741158,0.15836353817562607,-0.023268349189133012,10.0,1.6513930017047322
-14.187989682624165,3.7012240576686333,0.12272700704184589,-0.157112268321959,0.5207383406681385,1.0799822569804707,0.5216928336817422,-0.08805393599019268,0.04613733591785986,0.549097836828757,0.4723506924717489,-0.06378857431013256,26.0,1.616663261986022
-14.241668647830672,4.006849472088504,0.31365702576603355,-0.25007319179595733,0.25092575140390794,0.8879854268525909,0.5920382489207002,0.05637867096518627,-0.10465479062767599,0.021651404806440674,0.02120617476205098,-0.12017936145803101,12.0,1.6799828272750532
-14.309226758086314,3.866715058289619,-0.09563938134063839,-0.6212943269968543,0.3243382728734109,1.0960451441355694,0.6201031193635206,-0.14633067588336388,-0.16524401815643489,0.31712814834697356,0.45918112258767096,0.30035968425767606,10.0,1.7149993980635765
-14.319993534434547,3.6766107946143505,0.11644669723901757,-0.24544581793229342,0.4425377320525404,1.0301660925539078,0.5872334900277294,-0.022656530093173775,-0.04191312771686005,0.3221434980006256,0.3284322553567839,0.043505916153551524,18.0,1.7774260568596976
-14.384885608568009,3.8494687589149197,0.1861004893531194,-0.42423828875826153,0.15231694611869576,0.8625253223592307,0.6082989460324242,0.10011237730032857,-0.058806644473331934,0.21102131879447195,0.21103574583584908,0.04529112430385078,14.0,1.6284151278272163
-14.81849756177815,4.199224103198039,0.2528315613124574,-0.29825178175537626,0.29456159244008473,0.85449938979773,0.38317838940570315,-0.022128901860515637,0.11927785585840431,0.478954623729054,0.3824587575132544,0.06785638426893388,12.0,1.7609134057810365
-14.351449825546334,3.7168413980039112,0.17083113121587273,-0.3209586981488332,0.20117344575061963,0.7255539955635759,0.5733225634705212,0.33806725310815666,0.3466778772545332,0.27437752014104266,-0.0518690593403687,-0.24851937930133344,16.0,1.6453356374314372
-14.097944373336135,3.728801058692551,0.15826331871981103,-0.335794023946518,0.19349370867369772,0.8026795487719446,0.6549667893214365,0.27660522963440165,0.22971673206398815,0.34397775061865915,0.25334421585013417,0.02056881957447888,12.0,1.63982365678299
-14.400169157369307,3.5140688497439627,0.36690695475208135,-0.08468822763918969,0.10207985603653713,0.5294613825393155,0.5199945037224902,0.3783893696649526,0.29508564451045616,0.33007702869778904,0.21167544676708472,0.0705402587368874,10.0,1.6619560973537715
-13.727340522268237,3.939172444948742,0.2763831964415162,-0.5107622644205567,-0.1975929704693132,0.5542871778736929,0.6023179809289523,0.2448993307064694,0.0621767982644275,0.280052172787638,0.399681881815922,0.2422575321780368,8.0,1.5262984135878641
-13.619299308126681,3.601867739539481,0.10171615650918009,-0.23639874653164766,0.33339759328388663,0.8205797488947475,0.3854086874053839,-0.1370580255455621,-0.04716331709094637,0.3820362101495004,0.48515659285472135,0.22997166873211838,10.0,1.7031347108298602
-13.790504105504105,3.5171164618852546,0.06954442001409183,-0.41364005639492873,0.049740371026177316,0.6807667644149632,0.5238805705297027,0.1076809440320441,0.07703459371777882,0.4616070584439657,0.6408517959798339,0.36349533762527564,8.0,1.6986515856494626
-13.93442862129376,3.651544836344085,0.16993872823045647,-0.23885287548337514,0.21715366888765514,0.7005736535222495,0.4294935589321622,0.11564743141686332,0.2421678274741456,0.5256258321500226,0.3834065354733341,-0.02099592782108281,16.0,1.7144225117252567
-14.06945518539242,3.5668508002732717,0.3039941150435672,0.0602815680354978,0.4771103560661292,0.8016618863020788,0.3348843472133673,-0.053322301768108385,0.07319636805520603,0.3626192522988997,0.1996711762167455,-0.10455521410051674,8.0,1.7372455285757833
-13.801753584564386,3.5509869042821594,0.11565872741882494,-0.2549788220754286,0.23862613774744312,0.7894842922432532,0.5227302663741387,0.08891730856158046,0.07461259376177981,0.4222263987146496,0.5033622607932371,0.2620729555468752,14.0,1.6460836990777725
-14.029729312273181,3.667262286669777,0.016007740741620924,-0.25880263848731133,0.5192710139641651,1.0804363339333138,0.5116393854578318,-0.09869197105838198,-0.03115521721300067,0.35693223186679773,0.3133921295614664,0.021822030492643092,12.0,1.6694887948798287
-14.355767776156256,3.326170722269155,0.062101746105541616,-0.17202813897981828,0.39355163773030377,0.881232393872276,0.5075630903332358,0.034741369303166056,0.062259124114877606,0.4207191696256242,0.49301874486609476,0.3232130190567453,10.0,1.6972179216261742
-14.332721338076178,3.2975425121443913,0.14205084573110355,-0.19319040687784805,0.21900670515759935,0.8221649479664594,0.769248575926152,0.37858235135945845,0.15942008883277264,0.25306779373231386,0.2814132947136219,0.16095540314825962,10.0,1.7036494920156753
-13.990363558053867,3.590761345260773,0.265554780309355,-0.17022541899752164,0.18225635098927181,0.7772563745388719,0.6652679029319406,0.18456296743343487,-0.06594265291391041,0.11163461216594434,0.2750062696795589,0.20462246396540645,22.0,1.6347125168878922
-14.208677710468926,3.4542207147395025,0.3433627515240864,0.09248859788077611,0.41000122600114575,0.7527684020837302,0.4681497190840498,0.1657862709861293,0.16631493656492544,0.2911289209884218,0.08157476403531545,-0.20347582795608804,8.0,1.5939340240403257
-13.974221344100263,3.7299714631582583,0.12415322548670707,-0.3984018527065366,0.15278694840418366,0.9038336190363863,0.7400411478993725,0.2508440773963292,0.06426883112466955,0.20932342381479796,0.1851562754632411,-0.032026657385136555,16.0,1.698309536276279
-14.23399898479618,3.617413005796409,0.2750332372697489,-0.20410330408823837,0.11919262135996726,0.631590365330235,0.5274485491517349,0.25981442831987334,0.19696210839060896,0.28726018287163635,0.18885798582729346,0.01865448196967335,12.0,1.731086317895012
-13.967918997164428,3.5338451296772035,0.022967728584209805,-0.4003627575991396,0.20264491730757045,0.9254680728489294,0.8314494998005669,0.31290356132273506,0.09366332372307429,0.19328905892169918,0.23680990828392998,0.12139442242733806,12.0,1.747595707861545
-13.95212957690219,3.805640179656369,0.10686578343687494,-0.3420125780029328,0.2711067173097273,0.952836382905947,0.6302450253868948,0.1441205200137785,0.09584584652409356,0.284710963075419,0.16147184382343951,-0.055193117565070005,16.0,1.7322199697415401
-14.29232774932234,3.4244360475534954,0.2770816383207719,-0.1207540826087863,0.12705104651473031,0.577347964678622,0.4836313504945392,0.33447421368986496,0.2716010834230412,0.36230927030000704,0.23627030718209088,0.13548243810886695,8.0,1.6104708958898892
-14.384793606720368,3.546672609751778,0.30582101738192585,-0.1796780807788427,0.2351187446133355,0.91063429938034,0.8168155060971853,0.33548358279610313,0.061255127785845326,0.2164165608201381,0.31748892044467414,0.10490275195085336,16.0,1.7224900852447385
-13.26720526016258,4.312195934842827,0.324601535666079,-0.38101574208787903,0.06916335408815937,0.6325029118113508,0.2817675327783268,-0.22127381125521622,-0.23927797318334157,0.0636444554903055,0.22586934366457734,0.2602311949411215,28.0,1.620784865892022
-13.347312252479494,4.647973198713313,0.05624941872074855,-0.7325259584633614,0.14137601856913956,0.9398150163879313,0.4190631141072684,-0.22266321030432992,-0.01637385224210934,0.47648575442780483,0.28834374648600813,-0.23545854408528322,26.0,1.6457114346510857
-14.106436517852995,4.422861464237489,0.37206310136625087,-0.21640763944868274,0.5000632955368933,0.9375255837829273,0.2144617141669217,-0.35752110105193935,-0.0024138745288783993,0.521528824966179,0.3181812508663858,-0.2054436269842046,22.0,1.6498084920667369
-13.859114772694026,4.294764982148235,0.30838772423093697,-0.4169527799170659,0.11747651098974747,0.7427967515949156,0.3694409353190345,-0.14775047481947162,-0.12069896795935528,0.30228327775564556,0.28411552678200414,0.0325985946278235,24.0,1.6761087627247426
-12.876016112784345,4.809634667876838,-0.027263800159616814,-1.1325903731866536,-0.28451783168991696,0.7763783305440837,0.5373133325276007,-0.06785257492155719,-0.06432249251325499,0.42844471333295403,0.5276413415595751,0.28020951468884675,20.0,1.5852700244175821
-15.592719988358834,3.723776781819483,0.5019863288871246,-0.14267386945889837,0.1158272168205457,0.5351832156203848,0.5616218917993598,0.39126738065001815,0.37616419419082936,0.3167551043673411,0.18331763430026587,-0.053425389634847914,14.0,1.666597410128361
-15.339161582811746,3.9457364478721297,0.4405580992279302,-0.23771080148735677,0.23152560469004707,0.6740817476781167,0.3928932965966595,0.08272570381723349,0.17276671577748906,0.46252105735059973,0.23521419710409985,-0.17200255852582544,22.0,1.6195697720878233
